5.12340688724884E-02
1.06112257570678E-02
.108788791383786
3.98112150579183E-02
5.44297998782392E-02
1.42036918953107E-02
.050568648166618
.104058337016821
9.45334212974633E-02
8.09428764231982E-02
1.90353267401889E-02
.101885254196622
2.45574855290253E-02
1.60041735469332E-02
6.58563158584259E-02
8.13237330688932E-02
7.51515784503575E-02
-1.06682376221641E-03
9.85196433543286E-02
9.99687115958801E-02
1.20898001680625E-02
6.75949911873793E-02
.075592097869566
3.59452873637726E-02
1.03835419993312E-03
7.79753872347675E-02
4.02822509188298E-02
1.53302609965749E-02
7.54108207001956E-02
.107439003408923
2.41507860924922E-02
.026803139481043
.114310333777367
1.89826212224488E-02
-3.4798004924463E-03
.107355578747208
5.36102192123653E-02
1.7373105341137E-03
7.58128140800815E-02
.108523599362929
1.09266156933333E-02
1.36226071823336E-02
9.75353655972721E-02
.036368849818729
4.06923914399204E-03
8.41300479845994E-02
5.22004937162243E-02
-5.50581087661422E-03
5.09674928844191E-02
9.77323614201632E-02
5.81661142399499E-03
3.13619719803446E-02
.102716022923836
4.89827463461429E-02
1.58154761274822E-02
8.66324471585561E-02
7.13285078260157E-02
-5.08412301816648E-03
4.35066689381125E-02
.100468677049547
3.01177092225088E-02
1.96307061357637E-02
.103522614388823
7.64974036896505E-02
-1.03561740444462E-02
7.90668555551916E-02
8.67353664689242E-02
-4.32476829445733E-03
3.25695735868316E-02
.110797612127274
3.62421760861506E-02
4.15265799872976E-02
.108537388186636
5.06196459651767E-02
1.49759887669081E-02
8.18932493814826E-02
9.76191210442391E-02
1.38116330225189E-02
5.03328341358581E-02
.109187861519609
1.52885610413179E-02
2.10644009336512E-02
9.61363308905605E-02
4.05495394887154E-02
-2.3975595472371E-03
7.98846017009308E-02
.076159404198274
-1.51887758866894E-02
5.11011884321753E-02
9.75665718126178E-02
2.43123566912526E-02
-1.59417463155216E-02
8.10532314673003E-02
5.93699886300725E-02
1.00109716202928E-02
8.20881575281648E-02
8.21795720770939E-02
5.76218554672636E-02
.11477849559896
.20879797473954
.110765668412953
3.43948015731014E-02
8.56407470487541E-02
1.5442463983977E-03
-.053123671348859
9.67711436123533E-03
3.83606726778423E-02
-5.48179154556995E-02
-3.58164904225688E-02
4.07834460272006E-02
-3.78958987398553E-02
-4.58562781758565E-02
-1.88688969588562E-02
5.35563673185595E-02
.162778115008089
.46415662867776
.630502871572625
.5077214364309
9.24803734553715E-02
.119009049822165
-2.53804651171952E-02
-1.09048681096093E-02
4.25444135660987E-02
-2.7853078444041E-03
-5.18635447433342E-02
1.60434086379222E-02
7.13482772861015E-02
-4.71213448207868E-02
7.52761102483666E-04
7.14691960374929E-02
8.50173082126808E-05
-2.26446549033991E-02
.055076907392213
1.75034103902655E-02
-.024562206009494
6.05306683866519E-02
.060129229998068
-1.57506118776281E-02
4.04338209767199E-02
.100912278515937
2.69160204299917E-02
2.49164069374837E-02
.122238032831722
8.90376505150122E-02
2.25088755608146E-02
.113436534331129
.111548523034751
2.74913901750654E-02
5.02612265034464E-02
.105197972355675
3.49670536967302E-02
-4.61281160845922E-03
8.57281900703066E-02
.038338565417077
-7.41275680332535E-03
7.67700511454584E-02
.08952832952771
2.12460982912477E-03
.031250100035146
8.83669499313037E-02
8.31168657120259E-03
-.011364750019299
7.63208517555197E-02
4.32246465805058E-02
-1.63306160345143E-02
5.91163864840468E-02
7.64713611759478E-02
-1.44190348798676E-02
2.26493910282551E-02
8.39987760506281E-02
6.48911845530781E-03
-.015508950049562
7.87306856787345E-02
4.93369752050518E-02
-2.03055738964712E-02
5.55960667899247E-02
7.88199559616371E-02
-1.06881014983135E-02
2.53966114938972E-02
.093098584524704
2.06536789055566E-02
-2.7265680858342E-03
7.91093742161221E-02
4.91995030448137E-02
-1.58524759856857E-02
6.55236597249516E-02
7.65470840385391E-02
-7.6178985429432E-03
2.32747318109704E-02
9.30480137408209E-02
4.30977903615617E-03
2.04302454936449E-03
.078878176641591
5.53666878069614E-02
-1.70437166348824E-02
6.87195377703665E-02
8.05099167531201E-02
-4.36031454139369E-03
3.04423321965905E-02
.105964935543711
8.86436007045814E-03
-1.34923947406077E-03
8.90308679920248E-02
6.32152780888617E-02
-8.9747050262371E-03
5.58889079661125E-02
8.06018273385397E-02
1.1556487529032E-03
3.03390183971191E-02
9.05132383595785E-02
2.50905835768028E-02
-9.37268599479929E-04
9.09493894749359E-02
5.33657648673404E-02
-2.51395781455417E-03
6.65646708900082E-02
7.35604979921522E-02
2.93748913179928E-03
3.28633702166912E-02
9.43671877964331E-02
3.00262495349278E-02
-3.29825284075817E-03
8.16885643083011E-02
5.67052426475569E-02
-8.86762689877615E-03
.060425472989288
8.64894980964157E-02
-7.02596555275557E-03
2.60835581019042E-02
.083192996028651
3.32996694971678E-02
7.27915259490175E-04
.101075838475245
6.23385780133789E-02
-1.39633802704729E-02
6.06384839688888E-02
7.64592727682613E-02
-5.36180624229461E-03
3.66450876411876E-02
8.74241959751086E-02
2.50609380720731E-02
3.26397841627103E-03
9.54164813009679E-02
5.53236934010346E-02
-6.21021908920657E-03
5.86002181009253E-02
.082513130876025
9.00647594609519E-04
2.11346992572051E-02
9.73168721726921E-02
2.10099346124258E-02
2.06626767174404E-03
7.97748464059742E-02
4.65299340270661E-02
-6.73373213400553E-03
.070913527852922
8.89346272054823E-02
8.92448216284286E-04
3.22967230938248E-02
8.82941828469908E-02
1.66426870317441E-02
-8.11394551377853E-04
8.99234569025314E-02
4.68429909428969E-02
-8.18808455534296E-03
6.29246240634483E-02
8.33178613359598E-02
-5.3356707497593E-03
2.79526286439431E-02
9.55938223570592E-02
2.84346369016067E-02
-1.32302845178783E-03
8.74287202266681E-02
6.10112407806571E-02
-8.97419588610204E-03
5.77317300845982E-02
8.06647209939401E-02
-1.13820774622461E-02
3.80888914265928E-02
9.28643134968836E-02
2.42842775330313E-02
4.76688975987086E-04
.089588582231757
5.38060926085826E-02
-1.30214103933125E-02
6.14699665597089E-02
8.14442737016717E-02
-1.24973163333935E-03
3.21048159635237E-02
9.33177574421025E-02
2.05605591360051E-02
-2.06975713928485E-03
8.04671230272098E-02
5.65987894470737E-02
-2.44784132197037E-02
5.81156841098622E-02
7.81418265055409E-02
-3.91688619845076E-03
2.83637196842424E-02
8.74047928071127E-02
1.47303389796898E-02
-4.01085950740725E-04
.085046225939731
5.25243756329743E-02
-1.80214199556051E-02
5.97570425844062E-02
8.39528799074546E-02
-2.51948701841772E-03
2.28633944953258E-02
9.96919256027953E-02
1.83224370131171E-02
9.00425384411208E-04
8.00368002713742E-02
5.48439752008648E-02
-9.59769098865009E-03
5.60264621664164E-02
7.19950589463247E-02
-1.08063999453322E-02
2.91007519468596E-02
8.51001585083497E-02
9.85690945960731E-03
-6.16278672111797E-03
7.10756992842008E-02
5.30980430118574E-02
-2.40484969862119E-02
5.59956149561448E-02
8.92414702959829E-02
-2.80001608679677E-03
3.14375739813539E-02
8.51598520751692E-02
3.10391381233765E-02
1.04419752933432E-03
9.00407903298916E-02
.052577108341356
-4.21967468584723E-03
7.20863867450722E-02
7.25886071471649E-02
-.000210209575011
1.04291916871831E-02
8.72788200803945E-02
8.6575950036596E-03
-9.57977749023972E-03
7.43861446992084E-02
2.61555392259545E-02
-2.86266666288386E-02
5.02867292907347E-02
7.28718844440938E-02
-2.80429108845407E-02
7.78028138110399E-03
9.24317092356645E-02
2.92378130115698E-02
-4.22755369443764E-03
.093446691002278
.109481218952856
4.89116087103901E-02
.168558308523072
.164742031871098
8.09768832339804E-04
2.60111785124743E-04
3.70804428586842E-02
-3.72926850718642E-02
-.067571131702058
3.52586771600067E-02
-.012302047170021
-8.88326944139432E-02
-1.56575886631274E-03
8.7199916432573E-03
-6.58657862686779E-02
-9.24904404569199E-02
7.86721873055515E-02
.183250549905779
.382995197738344
.619550517199259
.542790565362315
3.79205846844298E-02
7.45091666763035E-02
2.07722458981633E-02
-3.83185755401833E-02
-3.64738368176619E-02
2.83541475840482E-02
-.040598368663686
-7.18851286766249E-02
4.27251593748865E-02
-6.46127031924478E-03
-5.79829292338206E-02
1.69478255328038E-02
5.71505171403558E-02
-3.92341190353137E-02
-1.55825584409241E-02
6.59603203901252E-02
-9.94997706990268E-03
-1.41667983556017E-02
4.86535793047437E-02
3.55479866135645E-02
-1.86218190700018E-02
.040287368823331
6.36141936870126E-02
-1.21186098700663E-03
3.21290785686404E-02
.10886636961056
3.79602950452976E-02
.03449195925805
.104764612547334
7.23431212058867E-02
-7.62238422690902E-04
6.66872883434113E-02
6.91706670080759E-02
-2.59476235487421E-02
1.05569711429596E-02
7.81402084357364E-02
1.39171946524226E-02
-1.68148074855497E-02
7.40232095498452E-02
4.16009315073054E-02
-3.68090024681921E-02
3.26581461305716E-02
4.32025048091977E-02
-3.22257268932903E-02
-4.35919674302043E-03
5.68239465795926E-02
9.88396675725352E-03
-.017754338419158
5.57255084828955E-02
2.25760536385706E-02
-3.30485595380247E-02
3.90363204184665E-02
.053535410738155
-.034172614260551
7.75833843340837E-03
6.82310345555295E-02
-4.65485137968704E-03
-2.94453311964593E-02
6.06421837811005E-02
3.79824328008027E-02
-2.67492426080077E-02
3.76963544996187E-02
6.01871291469146E-02
-1.52120107383759E-02
1.19057711042029E-02
7.56292124332544E-02
5.26860122346052E-03
-2.31869640986034E-02
6.37915448337612E-02
.035695087847081
-3.55431934868813E-02
.040802081091491
5.92783794495102E-02
-2.50241520698003E-02
3.80857890369068E-03
6.43628611161519E-02
1.81534625619625E-03
-2.21340068516134E-02
6.63871547457713E-02
4.08694120259267E-02
-2.65559672917511E-02
3.06839493194067E-02
6.77748519685523E-02
-2.86413500629844E-02
7.69872273524106E-03
8.50738238937334E-02
5.9964292897345E-03
-1.35740591920814E-02
6.62863608194399E-02
4.20802499836711E-02
-3.05945769976357E-02
4.25731478482634E-02
5.51132815387066E-02
-1.43707418064153E-02
5.60918442334522E-03
.073046014295407
4.33048123678023E-03
-1.26428607954617E-02
7.30298910801841E-02
3.22937323180935E-02
-2.97886214234438E-02
4.08761883014389E-02
6.83987773736617E-02
-2.18916889361602E-02
2.8540361335425E-03
7.08828592617707E-02
4.10640578235707E-03
-1.61116318943194E-02
6.68985398189007E-02
4.05402506401671E-02
-3.33406569589935E-02
.045420447824145
6.75868435502997E-02
-1.05147449344517E-02
1.41442666542233E-02
7.64932707241543E-02
-7.06077295359417E-03
-1.51337315889645E-02
6.56692270592493E-02
3.47796030870904E-02
-.034157635893652
4.25281242816921E-02
6.59108956515679E-02
-2.02302812565632E-02
3.29561260770988E-03
7.17719422854184E-02
6.61397574025363E-03
-2.56300564797822E-02
7.03648507083582E-02
3.08060066893529E-02
-3.27472713927232E-02
3.46624947306687E-02
5.96648237233016E-02
-.02220770463829
8.66089932270585E-03
7.76992204816915E-02
3.26864967261161E-03
-1.37899664839676E-02
6.42600817141845E-02
2.72393828049877E-02
-1.99407284012501E-02
.037953216229852
6.21228299585157E-02
-2.27025437844122E-02
-9.90805090914535E-03
7.09233049657804E-02
-4.32865203196985E-03
-1.31428767868897E-02
6.66724792622935E-02
2.97553889591227E-02
-4.08085692400592E-02
3.99889982735724E-02
6.87728162298934E-02
-1.82724013163143E-02
7.59328497569124E-03
6.41538090789709E-02
5.87098198066036E-03
-.017158884056469
5.80139503079241E-02
2.99689542700518E-02
-2.95069284730117E-02
3.51321977478576E-02
5.74474760685037E-02
-2.36257195556652E-02
1.10144864504759E-02
7.36750847293627E-02
1.03226687995355E-02
-2.74769255896672E-02
6.21709334438148E-02
2.19014348157095E-02
-3.45073435235932E-02
4.20232302332212E-02
5.32083568655845E-02
-2.41623789576652E-02
4.54653032770842E-03
6.93041280802421E-02
-7.87857709333062E-03
-2.24457277137742E-02
5.48449991728123E-02
2.70642563641783E-02
-4.44610460915802E-02
3.91859035085064E-02
5.45567429782419E-02
-2.86202408187146E-02
7.35202837914882E-03
.068829061197672
-3.96565345810876E-03
-1.12515128528929E-02
6.52625559198555E-02
3.45649752884123E-02
-4.06576730055222E-02
3.58895437818236E-02
5.71968835660777E-02
-.034457422936962
-8.51450679174576E-03
.062221657279522
1.41299842281323E-03
-3.22600397994698E-02
6.11153139962376E-02
3.30650532894089E-02
-3.42059477758059E-02
3.62174687730142E-02
5.59052435638798E-02
-3.87810876364979E-02
-1.30817962027851E-02
6.01933303348916E-02
-1.30941128633092E-02
-2.35613023365414E-02
.054019086980567
2.13827785935726E-02
-4.06330878977821E-02
3.59764581710371E-02
7.33532037414678E-02
-2.92086586098179E-02
5.94554484790069E-03
5.65237369154477E-02
-2.45786939054479E-03
-2.28430013735883E-02
4.08182752513684E-02
3.70640519013074E-02
-.047438305324427
2.35062482615481E-02
4.29965616834975E-02
-4.44181250940154E-02
-1.05739485099537E-02
4.22664101883024E-02
-2.19179424022061E-02
-4.74081444952564E-02
.039908705975049
2.82742255953273E-03
-5.74260330757141E-02
2.74673278172165E-02
5.84191068245632E-02
-3.37292227976528E-02
-1.82765689371971E-04
.115532248268732
6.03678250366324E-02
7.65450504924243E-02
.141045682576396
2.93226381525845E-02
-5.93892287701899E-02
-3.27164404598226E-02
.001146511334855
-9.02641968201838E-02
-4.21728176287631E-02
-7.46283667530991E-03
-8.27827566133255E-02
-9.94224488232505E-02
-1.47304450245826E-02
-3.90057603466282E-02
-.162290005474421
1.15453514182771E-02
.217758470776619
.358013100154647
.540671439994909
.558110504136043
4.00243206302068E-02
-2.79663955024025E-02
7.03756915304073E-03
-1.08857081921301E-02
-.104734153664262
-3.29870452421783E-02
-2.58739959205859E-03
-9.13820030903913E-02
-.037777675295817
3.31690080593453E-03
-4.32363991463688E-02
-7.12379160175535E-02
2.91757548784906E-02
-7.55258386628567E-03
-7.83970878373808E-02
4.86905958071412E-03
1.89667905753737E-02
-4.74097885274088E-02
-2.04317616811679E-02
5.06544643201747E-02
-1.80978325428167E-02
-2.76029475356311E-02
4.51085321140739E-02
4.05154897362335E-02
-2.33871165674744E-02
5.81677732857529E-02
6.28506717964757E-02
-4.46643105095292E-03
1.66559745306458E-02
8.41434627814976E-02
2.46686241248899E-03
-2.89478906337929E-02
4.60443400162993E-02
7.3842756504938E-03
-6.96111351998322E-02
4.06135314292275E-03
.040870025878864
-4.28147975492809E-02
-1.29042500374995E-02
4.78838501752868E-02
-2.91382314463055E-02
-4.71424204750161E-02
.027848279017178
1.39678504608474E-03
-6.07184743061669E-02
-1.34064006644783E-02
3.14706129910527E-02
-6.10101925439476E-02
-2.76128642127667E-02
3.93012584706821E-02
-.031351860274515
-4.33965185321271E-02
3.13987624686007E-02
-4.88965589194082E-03
-.057932576252882
3.40044161186088E-03
.034912193873838
-4.97116272875086E-02
-2.26485097157867E-02
4.37503162159213E-02
-3.02296925002409E-02
-4.49277246790209E-02
3.15030017622992E-02
2.19431874862937E-02
-5.26963186693621E-02
-3.76632921624262E-03
3.51296071681678E-02
-5.34643256271249E-02
-2.38833222228614E-02
4.35513424346008E-02
-2.34748633945174E-02
-4.28082542119553E-02
.025791262488647
6.20482209592257E-03
-6.63469987124264E-02
6.82801345884045E-03
3.56214974061229E-02
-4.99351920802154E-02
-.020571369803135
4.59628125390036E-02
-3.69267957074869E-02
-4.51076068480108E-02
3.87676183826699E-02
9.98627459569855E-03
-6.23577102872539E-02
1.04403362998969E-02
2.53726221501604E-02
-4.22556498461144E-02
-.020175718193172
4.31432634199506E-02
-2.20401981844398E-02
-4.63647132805138E-02
3.86991974886427E-02
9.57796490219094E-03
-6.31665068637141E-02
7.19030077093089E-03
.0350153948054
-3.89668542029208E-02
-2.02764846591437E-02
4.90291244628483E-02
-3.35982475830186E-02
-5.05300096931131E-02
3.45911299373867E-02
1.54237988767255E-02
-6.09080620485221E-02
5.60196912220392E-03
3.47854559792626E-02
-5.37192337599994E-02
-2.12503664808197E-02
4.09027491895648E-02
-1.36883846767606E-02
-6.02984739101058E-02
3.39321622620759E-02
2.9215700829147E-03
-6.08832861746674E-02
1.01252971217026E-02
3.59876700798059E-02
-5.20203858558795E-02
-1.74073237467515E-02
4.93231961417953E-02
-3.06357143232032E-02
-4.40264643266576E-02
.047231297243451
-1.89315581745853E-03
-6.24964898440763E-02
.008822252858009
3.75257466917887E-02
-4.45125216036079E-02
-1.89693962585251E-02
4.15886248988574E-02
-.023684138977589
-5.70219999707555E-02
2.51406414047443E-02
4.00403880959101E-03
-5.58422396253674E-02
1.28163248974915E-02
3.06249267656538E-02
-5.41074592006518E-02
-2.20311054583371E-02
3.53232765554556E-02
-2.21855718474358E-02
-4.72827662983463E-02
3.39839213772661E-02
1.56297246447479E-02
-6.25592992172119E-02
-3.26218537975253E-03
2.71419401929279E-02
-4.36770340941266E-02
-2.78003212226235E-02
3.35590686665121E-02
-2.61768604170161E-02
-5.51442529988872E-02
3.98393877600856E-02
1.62873201109952E-03
-6.77810594840227E-02
1.78725761227169E-03
2.85628159633088E-02
-3.31394262442616E-02
-.028019466603992
3.82111625115883E-02
-2.91170065983768E-02
-5.48067163335216E-02
2.75302155245003E-02
-3.51219235217558E-03
-5.92064067547043E-02
1.16138140559112E-02
2.74056287165484E-02
-5.80646050498256E-02
-3.07920287698632E-02
3.91117462932417E-02
-.034862243116055
-5.10794223322611E-02
1.49712688401735E-02
-9.87622760617366E-03
-6.87889220194009E-02
7.49008965773921E-03
3.72442584063087E-02
-5.59068471194629E-02
-3.24208313225714E-02
4.32222523692943E-02
-4.08589479040693E-02
-5.52507087901858E-02
3.57412427342771E-02
4.94645311244758E-04
-5.88015677437949E-02
3.67849492997992E-03
.031628266629314
-5.53277097106639E-02
-4.00588273339345E-02
5.26914950883117E-02
-2.61522077031505E-02
-5.99899399132947E-02
1.68156969404936E-02
3.59623876379688E-03
-7.47098978524888E-02
1.32402268051593E-03
3.37918862440758E-02
-6.47821041956783E-02
-3.60141535594518E-02
3.90546810971204E-02
-3.85207553262372E-02
-5.84510021605924E-02
2.37817864957701E-02
-9.68488035931069E-03
-6.28824223000707E-02
-5.90994266913598E-03
1.87072093664004E-02
-5.24875910404164E-02
-2.61222165527406E-02
2.90226059991175E-02
-.020480057413495
-5.08642441444713E-02
3.25768717750199E-02
-3.04830919848733E-04
-8.01947018600265E-02
-1.04518821733551E-04
2.66820277902509E-02
-5.78772471249856E-02
-3.52807456659388E-02
4.68158106569198E-02
-3.72519432324923E-02
-6.88658471114901E-02
.023631117677971
-9.37698152053312E-03
-8.91172978105941E-02
-2.22359168396668E-02
2.19488809238603E-02
-7.83783043366135E-02
-3.90120703122332E-02
2.31088337937312E-02
-4.77208781538928E-02
-6.39985400398701E-02
4.22037548589076E-02
-.017239476823121
-5.80993032927862E-02
6.40562159318388E-02
8.91573471104155E-02
4.73666451822483E-02
6.06074496773815E-02
3.37135400263206E-02
-5.34115479851097E-02
-.117153351708937
-2.67699305143982E-02
-5.95580275010001E-02
-.10912550938891
-.063301226495462
-.054119199535395
-.131054054934889
-9.97530142958474E-02
-3.29662123156726E-02
-.155296299343094
-6.79701021699132E-02
.197317033375539
.390338396867642
.466235936630043
.498505739894277
6.47726744387211E-02
-6.20874946460767E-02
-8.42887408361423E-02
-2.11005873339476E-03
-8.89138378008727E-02
-.121094780317109
-3.22356518805804E-02
-5.94791704308482E-02
-.108835715119732
-6.56181113556995E-02
-1.98608113195779E-02
-9.92734356490713E-02
-5.87125648897766E-02
9.73562830501137E-04
-7.61558018175168E-02
-8.33393921786884E-02
-1.30018560310582E-02
-1.28094895795282E-02
-.094482716084339
-.016006577813982
2.01370207266029E-02
-.064087704236145
-3.78375610939198E-02
4.15162261551385E-02
-2.66999507867399E-02
-3.74218160861981E-02
3.73437946070607E-02
2.86672911594184E-02
-5.34267338304605E-02
2.22921304079303E-02
3.19908160977335E-02
-6.86784438428246E-02
-4.42126379908553E-02
2.43904334874787E-02
-6.04001092555976E-02
-7.30582789530609E-02
1.38203929509946E-02
-1.90175923741725E-02
-.08567629815147
-1.36082656473107E-02
-1.65458301975366E-03
-8.41147790309606E-02
-5.66600069669077E-02
1.02857025568622E-02
-6.32372804367052E-02
-8.95185911139703E-02
-8.96749975313874E-04
-2.50763085198557E-02
-9.34182370077847E-02
-2.20592119026468E-02
1.71734335009423E-03
-8.35011217562356E-02
-5.75883986236474E-02
3.43290417607364E-03
-5.22294117946929E-02
-.07762423750163
7.82233406985784E-03
-2.54276108004949E-02
-8.87684464452186E-02
-1.95638479066441E-02
1.01991916963296E-02
-8.91248048661192E-02
-4.57691195911597E-02
1.93735708001017E-02
-4.48252643980332E-02
-8.61766180955069E-02
5.27627526281556E-03
-2.57711991067932E-02
-8.85914635948901E-02
-1.36966649891065E-02
-4.35558094383687E-03
-8.46207998153208E-02
-5.57459563085832E-02
1.46745116632165E-02
-.053905873227308
-6.55608689047748E-02
5.01692531068243E-03
-1.72108327610698E-02
-9.15953403076962E-02
-1.89109161315978E-02
1.17444155459578E-02
-.078151230269513
-4.00550521304654E-02
1.38747384636843E-02
-6.07303548235728E-02
-7.97196634554766E-02
8.8545255717618E-03
-.013822876759795
-8.50415906810002E-02
-1.57135061258797E-02
7.09641440363114E-03
-8.51854093462798E-02
-4.93735809494864E-02
1.83365041623074E-02
-3.71168084662057E-02
-8.32003178376783E-02
.010245467473693
-2.10902847510922E-02
-8.26968423553259E-02
-1.49495529472215E-02
8.8233901975054E-03
-.075746456114977
-4.92982105337159E-02
2.04430065946235E-02
-5.13901831203082E-02
-.067785420573534
2.05392366216553E-02
-1.76181150945995E-02
-8.68448326203893E-02
-7.91374916141832E-03
5.67737565829968E-03
-7.27794845793411E-02
-5.20309789406183E-02
.013986523587646
-4.37988275400617E-02
-6.83703527756692E-02
1.42109836539618E-02
-1.28705277729731E-02
-8.55233536742558E-02
-2.50432938541719E-02
4.44934735590253E-03
-7.69613689179113E-02
-.050953668248281
1.66215908678227E-02
-5.88187872869865E-02
-7.67906054535084E-02
1.08676815988226E-02
-1.61188254132016E-02
-8.61089062467952E-02
-1.21125261772508E-02
9.22535932486445E-03
-7.27443553100179E-02
-4.80232259557014E-02
1.86940580611508E-02
-.052359277012219
-7.20936724159875E-02
1.02810729393443E-02
-1.55767863337646E-02
-7.24300160959486E-02
-2.75406675280577E-02
-4.68211483558876E-03
-8.10215022980246E-02
-4.93879774578664E-02
2.05248109419277E-02
-.053310576684942
-7.40035844811406E-02
9.65452226902722E-03
-2.43178919689662E-02
-8.58890974216495E-02
-2.12692827588038E-02
2.11510655933519E-03
-8.66727159631187E-02
-5.41047325469285E-02
2.40275618300404E-02
-5.91853065686587E-02
-7.34052720790767E-02
4.94818226769011E-03
-2.14109675702753E-02
-8.61772228646491E-02
-2.78550451347356E-02
1.11500255323732E-02
-7.67311406089124E-02
-4.99577237118439E-02
.014278116715303
-4.37681057903295E-02
-7.82164485347588E-02
6.49512589576157E-03
-1.29098947697358E-02
-9.90852322334082E-02
-2.19995142454178E-02
-3.22998007734839E-03
-7.52406520245065E-02
-5.18395951309306E-02
1.82328498669745E-02
-5.36038881125367E-02
-7.70417432959568E-02
-6.93404216531038E-04
-1.54616166411955E-02
-8.93796699897312E-02
-2.42981450007065E-02
-2.34362808497905E-03
-9.32718995570993E-02
-5.67306070547697E-02
1.88981045837434E-02
-5.93653270470196E-02
-8.34775450298596E-02
8.89583980669809E-03
-2.57864777588528E-02
-8.69944083302654E-02
-2.02221071349923E-02
5.93051956978347E-03
-7.15236459319764E-02
-6.02641495344661E-02
1.17496834657195E-02
-6.51539741038989E-02
-7.86924357335829E-02
-2.3904055745162E-03
-3.17204484951071E-02
-.086082380941188
-2.25654056414376E-02
-4.55223574115206E-03
-7.84001407134796E-02
-6.08302491288315E-02
1.56676071427989E-02
-6.31958232315896E-02
-8.12768800711496E-02
-8.14757681898495E-03
-.027135580879009
-9.42930327869663E-02
-2.36574381072071E-02
1.10415111250468E-02
-8.42131574036388E-02
-5.22386460627963E-02
7.78810914391852E-03
-4.21430786113706E-02
-8.37220844994397E-02
-2.75193041708768E-03
-9.17701568440603E-03
-.102382851549681
-9.9155903177513E-03
-6.96589139551067E-03
-8.77334168292891E-02
-.067673384420431
1.11919882719309E-03
-.058437281270902
-9.82593170763306E-02
1.05982367979399E-03
-3.00011274245566E-02
-.109048913976643
-5.05280933625749E-02
-.016961043985946
-8.19320309711599E-02
-5.04551624346911E-02
1.37618532162959E-02
-5.80936300153427E-02
-3.15822073661086E-02
7.59105113158128E-02
8.24245667371601E-02
-4.80310955876406E-03
-1.75854857620657E-02
-2.27884988888613E-02
-.132108149266467
-9.72098386508946E-02
-4.85884375529951E-02
-9.90682836015098E-02
-.150045036359
-6.53562168085822E-02
-9.19627255269303E-02
-.153364623888661
-9.07289871829914E-02
-.103911423577655
-.10239596708262
.122596095028807
.407581578602838
.493526826201285
.414558944852702
3.65476757656611E-02
-2.67474381972533E-02
-.159429963966856
-6.34036413958337E-02
-4.87085064791569E-02
-.144470756235706
-.111380588247162
-5.25480597196458E-02
-8.99953879779687E-02
-.144430625918638
-3.50080580835513E-02
-.058041444329706
-.122712877050808
-5.26448162480048E-02
-3.58216574302646E-02
-.114776197989741
-8.07686692273911E-02
4.99814336422594E-03
-7.70873986335275E-02
-9.40416326671142E-02
1.41030543060942E-03
-3.17090206179775E-02
-9.37461098026235E-02
-7.78269511658047E-03
.014221526509349
-5.63783771872928E-02
-3.09493500700735E-02
4.16788803391968E-02
-2.70985568997699E-02
-6.10716935918681E-02
1.67897668627811E-02
-2.13415797899198E-02
-.100447977757547
-5.70566809687138E-02
-2.58451458532968E-02
-9.71956374140702E-02
-.067244453036474
-1.70385893474378E-03
-6.57133721776384E-02
-.085514146333196
-1.69768145556935E-02
-3.22020943049591E-02
-.115592518139177
-4.35194096343872E-02
-2.47349491029996E-02
-.107697443536893
-7.56105604150148E-02
-7.49081560278912E-04
-7.24438981074495E-02
-.103443695106326
-.016498988624102
-.041904144611688
-.115825579003454
-3.30906902400447E-02
-9.51062568859001E-03
-.113174807522095
-6.44785913867999E-02
-2.74401865468323E-03
-7.62817297917168E-02
-9.40297595920283E-02
-.021571222568256
-5.06060374557374E-02
-.111931208913025
-2.19804153520981E-02
-9.52747718106108E-03
-9.78380435965486E-02
-6.35207918863463E-02
2.81696606677873E-03
-.074389832370699
-.105322112859316
-9.23345412024055E-03
-3.99032996466092E-02
-.112882959720525
-2.96272737755171E-02
-2.30858483143652E-02
-9.59617492545642E-02
-7.73079003280695E-02
3.79635200867658E-03
-6.37162607835311E-02
-9.28552271448038E-02
-1.18470371711081E-02
-3.63244307604527E-02
-.103499057436313
-2.29999178554547E-02
-5.60447398626877E-03
-9.24138075641051E-02
-6.28308962691535E-02
1.04729049897689E-02
-6.35406489227846E-02
-8.77681793885458E-02
-2.40743928013201E-03
-3.19856754863121E-02
-9.98081132533915E-02
-3.58802227356043E-02
-5.0281151664149E-03
-8.78506190665694E-02
-6.14328211038996E-02
1.44534356843375E-02
-5.58544403186804E-02
-9.14389895929181E-02
3.64565989129709E-03
-1.26641546926696E-02
-.10688029975838
-3.41929362734457E-02
-1.55887447794153E-02
-9.44541213503094E-02
-6.60791580283199E-02
-1.68512121264489E-03
-6.07428407245073E-02
-8.42662145221407E-02
-2.90513197434568E-04
-2.83733588988405E-02
-.102190875721224
-.033838239212212
2.48625832945255E-03
-8.57675699090445E-02
-6.79807614446488E-02
-7.35592639279643E-04
-5.90215969950099E-02
-9.33193784091274E-02
-3.66286084494585E-04
-2.87117500453682E-02
-9.70641215317515E-02
-3.40050100784468E-02
-1.16574255017166E-02
-.084400998693857
-6.62362044118469E-02
6.49842326572705E-03
-6.01774564940759E-02
-9.30769493630279E-02
1.1129433508156E-03
-3.37250036316267E-02
-.103543229285214
-2.81337335504166E-02
-1.5853593868845E-03
-8.62023930996472E-02
-5.94746004532571E-02
9.76327004436583E-03
-7.05027356751147E-02
-8.65872244630935E-02
6.15499115982662E-03
-.035749021207149
-.105157248286873
-2.54877160599007E-02
-1.33659856587757E-02
-9.33595337622541E-02
-6.16518468202724E-02
1.37185737238585E-02
-5.78064607346499E-02
-.100475044366964
-6.23958776157675E-03
-3.19750840395046E-02
-.102468804845817
-3.38924405523578E-02
-1.73558236547595E-03
-9.48303767464612E-02
-5.85849200685792E-02
4.45181266449871E-03
-5.69380899496558E-02
-8.72974478148851E-02
-1.7545805784409E-03
-3.26155054528429E-02
-9.67740218116315E-02
-3.36102039023256E-02
-1.58390457881585E-03
-.100413945425574
-.071010767289128
1.13270650901518E-02
-5.92785627921737E-02
-9.86422611273426E-02
-1.34873341644096E-04
-3.02868340422573E-02
-9.88671653300685E-02
-3.04868005148808E-02
-4.03559972905601E-04
-.079559632065104
-5.37804285936863E-02
1.48699135831961E-02
-6.43511647922692E-02
-9.41967471939893E-02
3.09985789366372E-03
-3.10141720672292E-02
-9.94141132183967E-02
-3.26592292674361E-02
-5.60537360138556E-03
-8.81407672281962E-02
-5.92119624102334E-02
1.03150753342026E-02
-5.84978475429951E-02
-8.96227407386099E-02
-1.06842728226188E-02
-.034427520990954
-9.93739639114468E-02
-3.57255031286328E-02
5.54522433059099E-03
-8.94052491962875E-02
-6.06419042016839E-02
8.50029917828352E-03
-6.56207284567302E-02
-.095997410980662
-1.48237439017928E-03
-3.42229741171339E-02
-.103663538113801
-3.47747058265561E-02
-1.03166971240574E-02
-8.86207644193505E-02
-7.67996585859907E-02
7.18686390444812E-03
-6.51043951812692E-02
-9.27219730840342E-02
1.06154905853568E-02
-2.89903273129955E-02
-9.43356663338319E-02
-.029553488851929
-1.18503730623367E-02
-9.02264825856808E-02
-6.26128132617458E-02
2.44511509126036E-02
-7.09635359507209E-02
-8.75318844563461E-02
-7.11382592468278E-03
-4.16985217580836E-02
-.105240565731898
-3.39087646226745E-02
-2.07978373895928E-02
-.11222708800695
-6.64201955109308E-02
-1.22035723018442E-02
-8.34787227631681E-02
-.107922473006443
-2.36584806350644E-02
-3.14700240151818E-02
-9.01226841140592E-02
-3.43557258314898E-02
-6.54179870593852E-03
-2.30570759548042E-02
-2.98515163571133E-03
.11126457105782
2.87644053735416E-02
-9.25616032229208E-02
-2.00076522303006E-02
-8.41476223854752E-02
-.16165048529739
-8.23328814180072E-02
-4.40162497392643E-02
-.154573563597621
-.131631639940536
-5.18137000240699E-02
-.137827218644186
-.154302174909455
-.113166671469408
-3.99211964186616E-02
7.59446844165176E-02
.371842227329179
.540933111415845
.402367370837022
-3.26438525311494E-02
6.90424808427268E-03
-.121775006409073
-.122909192460249
-5.39032556665382E-02
-8.88940430972253E-02
-.150727197727031
-8.09770251114844E-02
-.037359867817914
-.141540169928815
-.105128300086266
-2.68981495432195E-02
-8.32423462345559E-02
-.119391310582176
-2.57507619460393E-02
-5.34198732436996E-02
-.121503738613582
-2.83016663701609E-02
-2.31474686212709E-02
-.104796338892199
-5.06279752596374E-02
3.49102899429844E-03
-5.55597961450051E-02
-6.90147362916393E-02
2.16510724990829E-02
-1.21145329336667E-02
-8.15906347285772E-02
3.8206662990238E-03
3.16467304571155E-02
-6.60570108675191E-02
-5.06094832252949E-02
2.01626794538262E-02
-6.22809805714984E-02
-.105476085815411
-2.07951524092134E-02
-4.60641577975898E-02
-.101367060178215
-2.67670978397816E-02
-2.26459296339375E-03
-.10495687880067
-.072274845827585
-4.17626423008634E-03
-7.44739943522263E-02
-.108508998970607
-1.94748830058702E-02
-5.17505548740067E-02
-.111493420864871
-4.32976724582071E-02
-7.59273579954974E-03
-9.87896508695313E-02
-6.68052189566964E-02
-7.03102520758364E-03
-6.88624880425627E-02
-.107933625066423
-3.77498768045655E-03
-5.05781130149536E-02
-.10799736597803
-4.95580554224649E-02
-1.34979941846291E-02
-9.59765244327035E-02
-6.52720696940421E-02
7.3847306100989E-03
-6.64943589520738E-02
-9.78513219642586E-02
-9.90630384584154E-03
-.03411174425753
-9.32067566526698E-02
-4.21759061624515E-02
-9.87879711411196E-03
-9.73334568218666E-02
-6.34716315370534E-02
1.39230085081584E-02
-7.68016782457347E-02
-9.18342944527515E-02
-1.50629578095478E-02
-3.79182318833544E-02
-.103114256803279
-2.21775333770494E-02
-.00488324620603
-9.03433140600005E-02
-5.68515075622553E-02
2.14181369215619E-03
-6.09079845815001E-02
-9.03255713955886E-02
-8.13166621995959E-03
-3.94716863174175E-02
-.110730239173628
-2.84728986793814E-02
-7.50560531633148E-03
-9.52948215386153E-02
-5.92541337821916E-02
1.36414606933397E-02
-5.91759631342579E-02
-9.65937677819294E-02
-1.02355673889042E-03
-3.73068207852171E-02
-8.89675420381423E-02
-2.65682826804973E-02
-3.64603344490344E-03
-8.12842782176033E-02
-5.78481527005941E-02
1.17969184226228E-03
-6.35902436803937E-02
-8.62644046080629E-02
-1.05154979450586E-02
-3.58467896105365E-02
-9.27590275469715E-02
-2.54374009670868E-02
-1.63122815413803E-03
-8.82793952924955E-02
-6.20022514209083E-02
1.50339425848197E-02
-6.47161703752758E-02
-7.44804218202892E-02
-2.15355315547158E-04
-2.07816393672144E-02
-9.58165284658207E-02
-1.98085919465699E-02
1.41705902314211E-03
-9.01221433629566E-02
-5.86809989019024E-02
1.72426250559582E-02
-6.48682877168987E-02
-8.36084192699292E-02
-3.05991368288752E-04
-3.00788107384666E-02
-9.38899873212892E-02
-3.05516449870355E-02
-8.05734335315639E-03
-8.37748420544516E-02
-6.40968005101887E-02
1.22491458560042E-03
-5.35043264643567E-02
-7.67231103292233E-02
-5.41538847373519E-03
-3.09449413433539E-02
-9.12684710174278E-02
-2.47276002327237E-02
1.78085783274391E-04
-8.12905236084701E-02
-4.70037156514257E-02
1.08235387316901E-02
-.054467423614855
-7.98914630383836E-02
-2.94610837285832E-03
-.024738025896131
-9.28741768878522E-02
-2.63561591366424E-02
-1.00367245258805E-02
-8.49884257976697E-02
-6.83322071679364E-02
8.32899704102868E-03
-.056767479650511
-8.21017696954671E-02
4.57170438631667E-03
-1.97021126273595E-02
-9.67556220747614E-02
-2.54360846972456E-02
-6.5875110542313E-03
-8.45173791008541E-02
-4.99357160277159E-02
2.60563986981058E-02
-6.62817462345784E-02
-7.90461228298357E-02
6.9830298404206E-03
-2.62935213517589E-02
-8.76967939812045E-02
-1.77324349332103E-02
1.52915766159409E-03
-8.16161645800771E-02
-6.16893743494887E-02
1.32336971662611E-02
-5.51846914494096E-02
-8.52863654668312E-02
4.6491169868941E-03
-2.83900846640557E-02
-9.44871551469152E-02
-2.33396968575614E-02
1.54107105836505E-03
-8.69503480516468E-02
-.040320930133457
1.13098089639886E-02
-4.75456404270609E-02
-9.00493714604092E-02
-6.94503793584246E-03
-2.76876907670451E-02
-9.34386901171984E-02
-3.03055754078927E-02
1.02252032993951E-02
-8.49575397371791E-02
-6.17323496816326E-02
1.24072023874791E-02
-7.04776488752728E-02
-9.24944124314129E-02
-3.55208203902044E-04
-3.00421123124164E-02
-.089850324627676
-2.17309047052072E-02
-5.68841075851853E-04
-8.03035700834615E-02
-5.15788884472068E-02
2.21888540671408E-02
-5.62983041604648E-02
-7.58099152275321E-02
-.000649234799743
-1.62233154576618E-02
-.100170471163344
-2.26681448438985E-02
7.64284582516583E-03
-8.30845732597758E-02
-3.85605387638371E-02
1.77648713234408E-02
-.048964114008471
-7.93651189912493E-02
1.26778174258736E-02
-2.15879325952293E-02
-7.85037262059836E-02
-1.20819359425743E-02
2.3865527665563E-03
-7.34477642198042E-02
-5.99181661380051E-02
1.68292832786645E-02
-5.83135151657112E-02
-8.45988887962697E-02
9.09166007846643E-04
-3.78724302504101E-02
-9.49555659736365E-02
-2.63258548724075E-02
-1.07922946996818E-02
-.101335460266447
-6.35633863841524E-02
.021080194190727
-3.78330555709975E-02
-7.05474318805479E-02
1.11231964202202E-02
4.58101147108811E-02
-1.88859933852526E-02
8.73584308949865E-02
9.66564084427962E-02
-7.69904803389105E-02
-7.25068848583053E-02
-2.90287400379818E-02
-9.55126412972707E-02
-.124592047087324
-4.04402947624801E-02
-7.96497416973464E-02
-.156631954050811
-7.88613402036873E-02
-5.16181605378739E-02
-.131325934788641
-.157907502130356
2.38157535029733E-02
.139332922193493
.322338292437755
.557386925583964
.468568004252532
-4.01643267281106E-02
-1.09464322181099E-02
-4.37148754664188E-02
-.100741849265012
-.106814835618134
-2.34685414337348E-02
-.100697502475423
-.131992550521197
-1.81457329818907E-02
-6.79955120742397E-02
-.131062080338869
-5.32643424310391E-02
-1.21093167410613E-02
-.10727767232733
-8.35870885405697E-02
-9.63723350156851E-03
-6.74479586961437E-02
-7.69952081383325E-02
-8.86910959915294E-03
-3.12855142071928E-02
-7.69842026833216E-02
-7.03930971965798E-03
8.98848884009531E-03
-5.84446337612163E-02
-4.08571612643074E-02
4.34572782435044E-02
-2.15723875683319E-02
-4.56824079920015E-02
3.46324248804642E-02
6.84498463422187E-03
-6.00152526336954E-02
-1.56125982073309E-02
-1.3390293556689E-03
-7.99321604763431E-02
-5.68506773330426E-02
-8.25140326861762E-04
-4.94034774240592E-02
-.074110449243563
1.71110389086847E-02
-1.85401776250617E-02
-.095238239328409
-3.35949677760558E-02
-8.68102751719758E-03
-8.48719338653738E-02
-7.48110649437781E-02
-6.16891701179491E-04
-5.73317510719112E-02
-9.44506236542781E-02
-9.46451467832343E-03
-3.45176379700949E-02
-.104998673114418
-2.27581243553035E-02
-1.08039848804197E-02
-7.79721904565252E-02
-.052677241278559
1.61418268376631E-02
-5.10592217580225E-02
-8.11038599985655E-02
-1.63493366416351E-03
-2.38130727169402E-02
-9.26134408750902E-02
-2.78109319696272E-02
7.05535364250749E-03
-8.34902294646834E-02
-.043987523818001
1.46780804439684E-02
-5.07270115665772E-02
-7.93282083252847E-02
-.007837104881885
-1.54198657175382E-02
-.089655398287717
-.01133937420613
1.15795609043139E-02
-6.57536999084311E-02
-.058705419879949
1.94385725598129E-02
-4.41837030034868E-02
-6.60309003380367E-02
1.70926403763271E-02
-1.23597777072066E-02
-8.09146575446736E-02
-1.15832158916191E-02
8.24581975772151E-03
-7.51528855110617E-02
-.035217628792865
1.46566579834711E-02
-4.04459881414746E-02
-8.31690589955837E-02
5.45319837094466E-03
-1.34843315045126E-02
-8.54711020566352E-02
-5.52211738526463E-03
1.25647964963983E-02
-5.78205852216658E-02
-4.28345489522641E-02
2.27122886636568E-02
-4.95751356576023E-02
-7.10552134051624E-02
8.9507288431863E-03
-6.05019346680731E-03
-6.89968330012868E-02
-2.58032989695622E-04
9.01054960695697E-03
-6.80883642568435E-02
-4.15604678513389E-02
2.38756640132097E-02
-3.92431311977093E-02
-.067668553022039
1.02977735223303E-02
-1.38917987770198E-02
-7.37418016680171E-02
2.68285598513433E-04
1.20481273667372E-02
-6.54692920713833E-02
-4.06081031613997E-02
3.83939623973547E-02
-4.09929515215617E-02
-6.23126512551814E-02
2.46311284161808E-02
-2.48959448842239E-03
-6.72545403915331E-02
-6.36713944345237E-03
1.65367056792446E-02
-.062661749683136
-3.96866815634829E-02
2.32749473108591E-02
-4.16396228412757E-02
-7.35354464512648E-02
2.28031055445482E-02
-3.84705473077555E-04
-6.48282643907178E-02
-5.83489392747823E-04
2.38624675500789E-02
-4.60260026745033E-02
-4.49107861135001E-02
.028279264630343
-4.09020287561165E-02
-6.87963164574216E-02
4.23493661687794E-02
-4.96946443739238E-03
-6.37564536529863E-02
-2.10518422199534E-03
.02069254160003
-5.39793059246085E-02
-.031918238768747
3.03694885754146E-02
-4.03862980171618E-02
-.056769411989627
1.50043980890281E-02
2.10242080498288E-03
-6.77555751491947E-02
-4.5095686225669E-03
2.28434075004669E-02
-6.51512023033617E-02
-3.07703199803727E-02
3.52326728755158E-02
-3.93610975900586E-02
-5.87024416936045E-02
2.28274651492546E-02
2.90067725455742E-04
-8.47539606939359E-02
-6.78502348323444E-03
3.56484095402533E-02
-7.26185194762676E-02
-2.87502779562003E-02
4.78679894902609E-02
-3.28076224906433E-02
-5.86731607486337E-02
.022879136069544
6.66344182833662E-03
-6.86623222674288E-02
-6.02326053437329E-03
2.60906260769811E-02
-5.73446905856634E-02
-3.09115883937534E-02
.041979319592624
-.02260895487314
-6.09485544388611E-02
.030068216986745
-5.46257650242833E-03
-6.79290882251609E-02
-3.11203838536282E-03
3.28760695572273E-02
-6.37306839778123E-02
-2.54952841015527E-02
3.24887119584419E-02
-3.98608723630093E-02
-5.48150996565785E-02
3.28179926613289E-02
-3.13242489405812E-03
-7.49396017152902E-02
7.82538177165237E-03
2.59006126496365E-02
-5.01776934580834E-02
-4.12729856126132E-02
3.20603805679995E-02
-.030764662354518
-6.08012810772592E-02
.02345095295714
2.06348078316008E-04
-5.25710602099308E-02
-4.55000549321842E-03
2.49965696840817E-02
-.054455090385297
-.032242145927818
4.01083648795024E-02
-3.63019735130773E-02
-5.86468752297683E-02
3.22638792502482E-02
9.70756039304994E-03
-6.88907711914448E-02
8.41459355864618E-03
4.83796785628553E-02
-5.49919741520792E-02
-.02832622155519
4.46021328489871E-02
-2.81698619580333E-02
-.050690637786133
.028557035872268
9.40528085614166E-03
-7.55543055974318E-02
-5.24458258033586E-04
2.92161864356263E-02
-6.42411812776407E-02
-2.47460823809869E-02
2.12304153566367E-02
-3.47978536897858E-02
-6.48083665668816E-02
2.66668391651775E-02
-1.90731098293202E-02
-7.76155635073534E-02
1.30058621405932E-02
.039667505405934
-4.29562664869837E-02
-2.52677208448574E-02
.10972122306874
4.61295917137737E-02
5.92055706999938E-02
.115815376563431
-3.44830372559189E-04
-8.35170029898447E-02
-.030766618490787
-1.39413608161377E-02
-.106354088874984
-5.44949264797597E-02
-1.40245522720733E-02
-9.68206411136454E-02
-.112019661995739
-3.06316748718555E-02
-5.81759375942005E-02
-.175578486056265
1.01512213067825E-02
.212883773723135
.349579800705031
.526781280552159
.523049622487667
4.72277823044457E-03
-5.29729100564526E-02
-2.99605036455862E-02
-3.08979121486469E-02
-.121344931726221
-4.84048394465532E-02
-8.0706365529979E-03
-.107508270149444
-6.23408046195404E-02
-5.25154098579336E-03
-6.75848526666838E-02
-7.59914795873278E-02
1.82362466271232E-02
-2.24465642212927E-02
-9.61647781660701E-02
-1.42982014314792E-02
6.13971996373212E-03
-5.32180236825049E-02
-.034534656287147
3.27266459011469E-02
-.021305112155029
-.054108053670016
3.46081416254853E-02
2.89287741534041E-02
-3.85058597905681E-02
4.09893934717067E-02
.050084204395166
-.012571643688554
5.65055059989545E-03
6.70653318985513E-02
-1.48366117637998E-02
-3.45339417074639E-02
4.24026627744187E-02
-8.36075632209393E-03
-7.69167750884631E-02
-5.74760016859117E-03
3.06869287981845E-02
-5.38181654434702E-02
-2.52861048261256E-02
4.21551932745831E-02
-3.11228465581062E-02
-6.03034845392711E-02
1.99681563614383E-02
-9.03254893354319E-03
-6.93245234236365E-02
-3.82310964752187E-03
2.39495253129424E-02
-6.73548236436508E-02
-3.21264202969158E-02
4.77807537943223E-02
-3.64469738313652E-02
-5.20759947158572E-02
3.12373897260107E-02
-9.43345331607571E-03
-6.82321476784522E-02
9.49928395123017E-03
3.57107488552386E-02
-5.65969659044157E-02
-3.06821171376183E-02
4.21910380169058E-02
-2.77407633706462E-02
-5.06413305706623E-02
3.25246028573105E-02
1.12955562429501E-02
-5.55620611355651E-02
9.06770119753056E-03
4.48362864381217E-02
-4.52902455296428E-02
-1.90295309626762E-02
4.92322233929008E-02
-1.38822747622813E-02
-4.86606164257358E-02
3.35782329873102E-02
1.68255315917964E-02
-5.58168372854289E-02
.014631958306643
3.13912902982133E-02
-4.30975392844382E-02
-9.57269445295034E-03
4.28997522239189E-02
-1.55370732121043E-02
-4.28338289523643E-02
4.00204306337747E-02
2.05390031288342E-02
-4.75235383520976E-02
1.06648092005055E-02
3.37794957370283E-02
-3.91645538291448E-02
-1.33851158659339E-02
5.22778497044665E-02
