5.123406887248840164e-02
1.061122575706779925e-02
1.087887913837859988e-01
3.981121505791829912e-02
5.442979987823919757e-02
1.420369189531069977e-02
5.056864816661799794e-02
1.040583370168210037e-01
9.453342129746329647e-02
8.094287642319819565e-02
1.903532674018890147e-02
1.018852541966220049e-01
2.455748552902529969e-02
1.600417354693320013e-02
6.585631585842589841e-02
8.132373306889320586e-02
7.515157845035749795e-02
-1.066823762216409944e-03
9.851964335432859821e-02
9.996871159588009703e-02
1.208980016806249919e-02
6.759499118737929968e-02
7.559209786956599952e-02
3.594528736377260170e-02
1.038354199933119986e-03
7.797538723476750422e-02
4.028225091882980252e-02
1.533026099657490079e-02
7.541082070019559935e-02
1.074390034089229978e-01
2.415078609249219840e-02
2.680313948104300070e-02
1.143103337773670042e-01
1.898262122244880057e-02
-3.479800492446299791e-03
1.073555787472079970e-01
5.361021921236529958e-02
1.737310534113700039e-03
7.581281408008150313e-02
1.085235993629290047e-01
1.092661569333329939e-02
1.362260718233359973e-02
9.753536559727210564e-02
3.636884981872900297e-02
4.069239143992040182e-03
8.413004798459940148e-02
5.220049371622430268e-02
-5.505810876614220320e-03
5.096749288441909664e-02
9.773236142016319961e-02
5.816611423994990336e-03
3.136197198034459954e-02
1.027160229238359979e-01
4.898274634614289968e-02
1.581547612748220033e-02
8.663244715855610012e-02
7.132850782601569961e-02
-5.084123018166479893e-03
4.350666893811250269e-02
1.004686770495469977e-01
3.011770922250879903e-02
1.963070613576370013e-02
1.035226143888230005e-01
7.649740368965049497e-02
-1.035617404444619943e-02
7.906685555519160635e-02
8.673536646892419932e-02
-4.324768294457329715e-03
3.256957358683160164e-02
1.107976121272740005e-01
3.624217608615060149e-02
4.152657998729759881e-02
1.085373881866359969e-01
5.061964596517670029e-02
1.497598876690810037e-02
8.189324938148259680e-02
9.761912104423910164e-02
1.381163302251890018e-02
5.033283413585810245e-02
1.091878615196090058e-01
1.528856104131789961e-02
2.106440093365119851e-02
9.613633089056050629e-02
4.054953948871539704e-02
-2.397559547237099881e-03
7.988460170093079904e-02
7.615940419827399444e-02
-1.518877588668940057e-02
5.110118843217530127e-02
9.756657181261779721e-02
2.431235669125260054e-02
-1.594174631552160160e-02
8.105323146730029904e-02
5.936998863007249966e-02
1.001097162029280022e-02
8.208815752816479849e-02
8.217957207709389311e-02
5.762185546726360241e-02
1.147784955989600009e-01
2.087979747395400099e-01
1.107656684129530028e-01
3.439480157310140229e-02
8.564074704875410116e-02
1.544246398397700016e-03
-5.312367134885900150e-02
9.677114361235330392e-03
3.836067267784230156e-02
-5.481791545569950075e-02
-3.581649042256879883e-02
4.078344602720059692e-02
-3.789589873985529933e-02
-4.585627817585650329e-02
-1.886889695885619889e-02
5.355636731855949878e-02
1.627781150080890027e-01
4.641566286777599748e-01
6.305028715726249677e-01
5.077214364308999528e-01
9.248037345537149512e-02
1.190090498221649945e-01
-2.538046511719519935e-02
-1.090486810960930066e-02
4.254441356609869884e-02
-2.785307844404099915e-03
-5.186354474333419728e-02
1.604340863792219976e-02
7.134827728610150521e-02
-4.712134482078680214e-02
7.527611024836659880e-04
7.146919603749289640e-02
8.501730821268080329e-05
-2.264465490339909876e-02
5.507690739221299953e-02
1.750341039026550097e-02
-2.456220600949399896e-02
6.053066838665190075e-02
6.012922999806800256e-02
-1.575061187762809983e-02
4.043382097671990166e-02
1.009122785159369956e-01
2.691602042999170080e-02
2.491640693748370036e-02
1.222380328317219933e-01
8.903765051501219552e-02
2.250887556081460072e-02
1.134365343311290047e-01
1.115485230347510043e-01
2.749139017506540064e-02
5.026122650344640175e-02
1.051979723556750040e-01
3.496705369673019925e-02
-4.612811608459220156e-03
8.572819007030660354e-02
3.833856541707700294e-02
-7.412756803325350197e-03
7.677005114545840114e-02
8.952832952771000441e-02
2.124609829124770102e-03
3.125010003514600010e-02
8.836694993130370102e-02
8.311686571202590856e-03
-1.136475001929899975e-02
7.632085175551969747e-02
4.322464658050580166e-02
-1.633061603451430033e-02
5.911638648404680257e-02
7.647136117594779958e-02
-1.441903487986759963e-02
2.264939102825510100e-02
8.399877605062809616e-02
6.489118455307810000e-03
-1.550895004956200085e-02
7.873068567873449386e-02
4.933697520505180012e-02
-2.030557389647119973e-02
5.559606678992470158e-02
7.881995596163710038e-02
-1.068810149831350004e-02
2.539661149389720041e-02
9.309858452470400059e-02
2.065367890555660016e-02
-2.726568085834199951e-03
7.910937421612210252e-02
4.919950304481369996e-02
-1.585247598568570102e-02
6.552365972495159674e-02
7.654708403853910381e-02
-7.617898542943199632e-03
2.327473181097039837e-02
9.304801374082090348e-02
4.309779036156169765e-03
2.043024549364490152e-03
7.887817664159099684e-02
5.536668780696139824e-02
-1.704371663488240055e-02
6.871953777036650390e-02
8.050991675312009488e-02
-4.360314541393689979e-03
3.044233219659049985e-02
1.059649355437110030e-01
8.864360070458139271e-03
-1.349239474060769930e-03
8.903086799202479529e-02
6.321527808886169553e-02
-8.974705026237100522e-03
5.588890796611249712e-02
8.060182733853969717e-02
1.155648752903200077e-03
3.033901839711910034e-02
9.051323835957850172e-02
2.509058357680279960e-02
-9.372685994799290210e-04
9.094938947493590164e-02
5.336576486734039698e-02
-2.513957814554170032e-03
6.656467089000819848e-02
7.356049799215219620e-02
2.937489131799279982e-03
3.286337021669120256e-02
9.436718779643310517e-02
3.002624953492780135e-02
-3.298252840758169897e-03
8.168856430830109816e-02
5.670524264755689992e-02
-8.867626898776150707e-03
6.042547298928799965e-02
8.648949809641570674e-02
-7.025965552755569950e-03
2.608355810190420010e-02
8.319299602865100340e-02
3.329966949716779701e-02
7.279152594901749929e-04
1.010758384752449973e-01
6.233857801337890081e-02
-1.396338027047290022e-02
6.063848396888880249e-02
7.645927276826129659e-02
-5.361806242294609934e-03
3.664508764118760281e-02
8.742419597510860119e-02
2.506093807207309884e-02
3.263978416271030077e-03
9.541648130096790081e-02
5.532369340103460154e-02
-6.210219089206570411e-03
5.860021810092529843e-02
8.251313087602500651e-02
9.006475946095190369e-04
2.113469925720510081e-02
9.731687217269209544e-02
2.100993461242579852e-02
2.066267671744039837e-03
7.977484640597419518e-02
4.652993402706610132e-02
-6.733732134005529849e-03
7.091352785292200089e-02
8.893462720548230005e-02
8.924482162842859497e-04
3.229672309382480150e-02
8.829418284699079578e-02
1.664268703174410016e-02
-8.113945513778529932e-04
8.992345690253139567e-02
4.684299094289690046e-02
-8.188084555342960841e-03
6.292462406344830061e-02
8.331786133595979471e-02
-5.335670749759299607e-03
2.795262864394310043e-02
9.559382235705919661e-02
2.843463690160669827e-02
-1.323028451787829985e-03
8.742872022666810239e-02
6.101124078065710277e-02
-8.974195886102039749e-03
5.773173008459819844e-02
8.066472099394010609e-02
-1.138207746224609990e-02
3.808889142659280247e-02
9.286431349688359371e-02
2.428427753303129960e-02
4.766889759870859768e-04
8.958858223175700242e-02
5.380609260858260079e-02
-1.302141039331249951e-02
6.146996655970889817e-02
8.144427370167170444e-02
-1.249731633339349951e-03
3.210481596352370015e-02
9.331775744210249468e-02
2.056055913600509863e-02
-2.069757139284849907e-03
8.046712302720980536e-02
5.659878944707370102e-02
-2.447841321970370063e-02
5.811568410986220345e-02
7.814182650554089837e-02
-3.916886198450759797e-03
2.836371968424240136e-02
8.740479280711270504e-02
1.473033897968980058e-02
-4.010859507407249979e-04
8.504622593973100442e-02
5.252437563297430306e-02
-1.802141995560509885e-02
5.975704258440620031e-02
8.395287990745460560e-02
-2.519487018417719982e-03
2.286339449532579990e-02
9.969192560279530047e-02
1.832243701311710160e-02
9.004253844112079970e-04
8.003680027137420605e-02
5.484397520086480016e-02
-9.597690988650089614e-03
5.602646216641640059e-02
7.199505894632469982e-02
-1.080639994533219919e-02
2.910075194685959876e-02
8.510015850834970474e-02
9.856909459607309312e-03
-6.162786721117969983e-03
7.107569928420079397e-02
5.309804301185740150e-02
-2.404849698621189941e-02
5.599561495614480133e-02
8.924147029598289427e-02
-2.800016086796770082e-03
3.143757398135389736e-02
8.515985207516919842e-02
3.103913812337650083e-02
1.044197529334320047e-03
9.004079032989159570e-02
5.257710834135600336e-02
-4.219674685847230218e-03
7.208638674507220068e-02
7.258860714716490470e-02
-2.102095750109999890e-04
1.042919168718309947e-02
8.727882008039450357e-02
8.657595003659599234e-03
-9.579777490239719737e-03
7.438614469920840078e-02
2.615553922595450012e-02
-2.862666662883860125e-02
5.028672929073470244e-02
7.287188444409380128e-02
-2.804291088454069839e-02
7.780281381103990382e-03
9.243170923566450259e-02
2.923781301156979859e-02
-4.227553694437640418e-03
9.344669100227799563e-02
1.094812189528559937e-01
4.891160871039010316e-02
1.685583085230719924e-01
1.647420318710980103e-01
8.097688323398039489e-04
2.601117851247429871e-04
3.708044285868419832e-02
-3.729268507186420112e-02
-6.757113170205800157e-02
3.525867716000669755e-02
-1.230204717002100073e-02
-8.883269441394320287e-02
-1.565758866312740071e-03
8.719991643257299710e-03
-6.586578626867789499e-02
-9.249044045691989790e-02
7.867218730555150530e-02
1.832505499057789922e-01
3.829951977383440065e-01
6.195505171992590210e-01
5.427905653623149584e-01
3.792058468442979779e-02
7.450916667630350099e-02
2.077224589816329889e-02
-3.831857554018330142e-02
-3.647383681766189906e-02
2.835414758404819838e-02
-4.059836866368599778e-02
-7.188512867662490147e-02
4.272515937488650245e-02
-6.461270319244779778e-03
-5.798292923382059733e-02
1.694782553280380077e-02
5.715051714035580127e-02
-3.923411903531370121e-02
-1.558255844092409914e-02
6.596032039012519887e-02
-9.949977069902679605e-03
-1.416679835560170041e-02
4.865357930474369791e-02
3.554798661356450146e-02
-1.862181907000180076e-02
4.028736882333099761e-02
6.361419368701259902e-02
-1.211860987006630006e-03
3.212907856864039707e-02
1.088663696105599960e-01
3.796029504529759707e-02
3.449195925805000063e-02
1.047646125473340045e-01
7.234312120588670680e-02
-7.622384226909019629e-04
6.668728834341129674e-02
6.917066700807590618e-02
-2.594762354874209989e-02
1.055697114295960082e-02
7.814020843573639408e-02
1.391719465242259937e-02
-1.681480748554969873e-02
7.402320954984520363e-02
4.160093150730539979e-02
-3.680900246819209659e-02
3.265814613057160115e-02
4.320250480919769764e-02
-3.222572689329029905e-02
-4.359196743020429983e-03
5.682394657959260326e-02
9.883966757253519544e-03
-1.775433841915800143e-02
5.572550848289550135e-02
2.257605363857060135e-02
-3.304855953802469937e-02
3.903632041846649692e-02
5.353541073815500095e-02
-3.417261426055100137e-02
7.758338433408369997e-03
6.823103455552949337e-02
-4.654851379687040269e-03
-2.944533119645929842e-02
6.064218378110049906e-02
3.798243280080269846e-02
-2.674924260800769921e-02
3.769635449961870194e-02
6.018712914691459748e-02
-1.521201073837590012e-02
1.190577110420290054e-02
7.562921243325440579e-02
5.268601223460520414e-03
-2.318696409860340063e-02
6.379154483376120455e-02
3.569508784708100291e-02
-3.554319348688129987e-02
4.080208109149099927e-02
5.927837944951019900e-02
-2.502415206980029838e-02
3.808578903690679977e-03
6.436286111615190098e-02
1.815346256196249996e-03
-2.213400685161339906e-02
6.638715474577129572e-02
4.086941202592669908e-02
-2.655596729175109874e-02
3.068394931940670103e-02
6.777485196855230487e-02
-2.864135006298439839e-02
7.698722735241059732e-03
8.507382389373339959e-02
5.996429289734499582e-03
-1.357405919208140056e-02
6.628636081943989344e-02
4.208024998367110303e-02
-3.059457699763570154e-02
4.257314784826340265e-02
5.511328153870660024e-02
-1.437074180641530023e-02
5.609184423345219689e-03
7.304601429540699686e-02
4.330481236780229712e-03
-1.264286079546170054e-02
7.302989108018409503e-02
3.229373231809350153e-02
-2.978862142344379862e-02
4.087618830143890242e-02
6.839877737366170662e-02
-2.189168893616020087e-02
2.854036133542499874e-03
7.088285926177069485e-02
4.106405782357070225e-03
-1.611163189431940104e-02
6.689853981890070411e-02
4.054025064016709978e-02
-3.334065695899349896e-02
4.542044782414499798e-02
6.758684355029970225e-02
-1.051474493445169953e-02
1.414426665422329962e-02
7.649327072415429418e-02
-7.060772953594169656e-03
-1.513373158896449966e-02
6.566922705924929660e-02
3.477960308709039661e-02
-3.415763589365199832e-02
4.252812428169210068e-02
6.591089565156789398e-02
-2.023028125656320050e-02
3.295612607709880095e-03
7.177194228541840249e-02
6.613975740253630331e-03
-2.563005647978219836e-02
7.036485070835819811e-02
3.080600668935290151e-02
-3.274727139272320259e-02
3.466249473066870118e-02
5.966482372330159795e-02
-2.220770463828999897e-02
8.660899322705849571e-03
7.769922048169150552e-02
3.268649672611609845e-03
-1.378996648396759936e-02
6.426008171418449988e-02
2.723938280498770098e-02
-1.994072840125010043e-02
3.795321622985200344e-02
6.212282995851570178e-02
-2.270254378441220050e-02
-9.908050909145350860e-03
7.092330496578040655e-02
-4.328652031969850052e-03
-1.314287678688970049e-02
6.667247926229349919e-02
2.975538895912269860e-02
-4.080856924005919761e-02
3.998899827357239867e-02
6.877281622989339649e-02
-1.827240131631429829e-02
7.593284975691240099e-03
6.415380907897090534e-02
5.870981980660360151e-03
-1.715888405646899886e-02
5.801395030792409757e-02
2.996895427005179940e-02
-2.950692847301170096e-02
3.513219774785759919e-02
5.744747606850370003e-02
-2.362571955566520124e-02
1.101448645047590005e-02
7.367508472936269703e-02
1.032266879953550043e-02
-2.747692558966719975e-02
6.217093344381480202e-02
2.190143481570950082e-02
-3.450734352359319940e-02
4.202323023322120099e-02
5.320835686558449823e-02
-2.416237895766519886e-02
4.546530327708420312e-03
6.930412808024209725e-02
-7.878577093330620465e-03
-2.244572771377420159e-02
5.484499917281229764e-02
2.706425636417830044e-02
-4.446104609158019888e-02
3.918590350850639781e-02
5.455674297824190250e-02
-2.862024081871460124e-02
7.352028379148820014e-03
6.882906119767200070e-02
-3.965653458108759667e-03
-1.125151285289290037e-02
6.526255591985549720e-02
3.456497528841229877e-02
-4.065767300552219909e-02
3.588954378182360183e-02
5.719688356607770252e-02
-3.445742293696200248e-02
-8.514506791745760778e-03
6.222165727952200243e-02
1.412998422813229902e-03
-3.226003979946980016e-02
6.111531399623759686e-02
3.306505328940889665e-02
-3.420594777580589912e-02
3.621746877301419698e-02
5.590524356387979732e-02
-3.878108763649790180e-02
-1.308179620278509918e-02
6.019333033489159684e-02
-1.309411286330919993e-02
-2.356130233654140163e-02
5.401908698056699654e-02
2.138277859357259891e-02
-4.063308789778209695e-02
3.597645817103709703e-02
7.335320374146779565e-02
-2.920865860981789949e-02
5.945544847900690287e-03
5.652373691544770179e-02
-2.457869390544790197e-03
-2.284300137358830085e-02
4.081827525136839940e-02
3.706405190130739741e-02
-4.743830532442699921e-02
2.350624826154809957e-02
4.299656168349749730e-02
-4.441812509401540238e-02
-1.057394850995370048e-02
4.226641018830239876e-02
-2.191794240220610104e-02
-4.740814449525639768e-02
3.990870597504900252e-02
2.827422559532730053e-03
-5.742603307571410298e-02
2.746732781721649905e-02
5.841910682456320086e-02
-3.372922279765280112e-02
-1.827656893719710094e-04
1.155322482687319990e-01
6.036782503663239846e-02
7.654505049242429915e-02
1.410456825763959920e-01
2.932263815258449868e-02
-5.938922877018990021e-02
-3.271644045982260302e-02
1.146511334855000079e-03
-9.026419682018380075e-02
-4.217281762876309847e-02
-7.462836675309910024e-03
-8.278275661332550051e-02
-9.942244882325050603e-02
-1.473044502458259984e-02
-3.900576034662819880e-02
-1.622900054744209897e-01
1.154535141827709929e-02
2.177584707766190009e-01
3.580131001546469904e-01
5.406714399949089644e-01
5.581105041360430175e-01
4.002432063020679859e-02
-2.796639550240249961e-02
7.037569153040729858e-03
-1.088570819213009917e-02
-1.047341536642620030e-01
-3.298704524217829781e-02
-2.587399592058589864e-03
-9.138200309039129499e-02
-3.777767529581699951e-02
3.316900805934529847e-03
-4.323639914636880077e-02
-7.123791601755349867e-02
2.917575487849060137e-02
-7.552583866285669800e-03
-7.839708783738079390e-02
4.869059580714120254e-03
1.896679057537370081e-02
-4.740978852740879851e-02
-2.043176168116789954e-02
5.065446432017470246e-02
-1.809783254281669904e-02
-2.760294753563110118e-02
4.510853211407390290e-02
4.051548973623349953e-02
-2.338711656747440026e-02
5.816777328575289951e-02
6.285067179647570168e-02
-4.466431050952919708e-03
1.665597453064579861e-02
8.414346278149760494e-02
2.466862412488989801e-03
-2.894789063379290053e-02
4.604434001629929829e-02
7.384275650493800358e-03
-6.961113519983219700e-02
4.061353142922750209e-03
4.087002587886399974e-02
-4.281479754928090020e-02
-1.290425003749950082e-02
4.788385017528679760e-02
-2.913823144630550005e-02
-4.714242047501610022e-02
2.784827901717799870e-02
1.396785046084739971e-03
-6.071847430616689884e-02
-1.340640066447829938e-02
3.147061299105270021e-02
-6.101019254394760005e-02
-2.761286421276670094e-02
3.930125847068210304e-02
-3.135186027451500324e-02
-4.339651853212710131e-02
3.139876246860069664e-02
-4.889655891940820377e-03
-5.793257625288199958e-02
3.400441611860879811e-03
3.491219387383800304e-02
-4.971162728750860155e-02
-2.264850971578670144e-02
4.375031621592129910e-02
-3.022969250024089977e-02
-4.492772467902089728e-02
3.150300176229919868e-02
2.194318748629369917e-02
-5.269631866936209941e-02
-3.766329216242619848e-03
3.512960716816779932e-02
-5.346432562712490066e-02
-2.388332222286140144e-02
4.355134243460079962e-02
-2.347486339451739998e-02
-4.280825421195529751e-02
2.579126248864700016e-02
6.204822095922569829e-03
-6.634699871242639990e-02
6.828013458840449974e-03
3.562149740612290116e-02
-4.993519208021540007e-02
-2.057136980313499855e-02
4.596281253900359742e-02
-3.692679570748690077e-02
-4.510760684801080195e-02
3.876761838266989946e-02
9.986274595698549361e-03
-6.235771028725389797e-02
1.044033629989690043e-02
2.537262215016039893e-02
-4.225564984611440006e-02
-2.017571819317200144e-02
4.314326341995060321e-02
-2.204019818443980067e-02
-4.636471328051380153e-02
3.869919748864270037e-02
9.577964902190939586e-03
-6.316650686371409751e-02
7.190300770930889603e-03
3.501539480540000193e-02
-3.896685420292080038e-02
-2.027648465914369882e-02
4.902912446284830167e-02
-3.359824758301860337e-02
-5.053000969311310236e-02
3.459112993738670122e-02
1.542379887672550021e-02
-6.090806204852210193e-02
5.601969122203919772e-03
3.478545597926260141e-02
-5.371923375999940187e-02
-2.125036648081969973e-02
4.090274918956479655e-02
-1.368838467676060031e-02
-6.029847391010580149e-02
3.393216226207589753e-02
2.921570082914699915e-03
-6.088328617466740034e-02
1.012529712170259950e-02
3.598767007980589738e-02
-5.202038585587950154e-02
-1.740732374675149977e-02
4.932319614179529743e-02
-3.063571432320320170e-02
-4.402646432665759807e-02
4.723129724345100089e-02
-1.893155817458530002e-03
-6.249648984407629726e-02
8.822252858008999832e-03
3.752574669178870143e-02
-4.451252160360789911e-02
-1.896939625852510011e-02
4.158862489885740282e-02
-2.368413897758899975e-02
-5.702199997075550059e-02
2.514064140474429887e-02
4.004038809591010245e-03
-5.584223962536739860e-02
1.281632489749149999e-02
3.062492676565380101e-02
-5.410745920065179737e-02
-2.203110545833709966e-02
3.532327655545559886e-02
-2.218557184743579977e-02
-4.728276629834630290e-02
3.398392137726610057e-02
1.562972464474789852e-02
-6.255929921721190001e-02
-3.262185379752530114e-03
2.714194019292789917e-02
-4.367703409412659887e-02
-2.780032122262349886e-02
3.355906866651209991e-02
-2.617686041701609845e-02
-5.514425299888719989e-02
3.983938776008560251e-02
1.628732011099520097e-03
-6.778105948402270153e-02
1.787257612271689940e-03
2.856281596330879913e-02
-3.313942624426159667e-02
-2.801946660399199859e-02
3.821116251158829941e-02
-2.911700659837680033e-02
-5.480671633352159761e-02
2.753021552450030107e-02
-3.512192352175579849e-03
-5.920640675470430214e-02
1.161381405591119936e-02
2.740562871654839833e-02
-5.806460504982560028e-02
-3.079202876986320003e-02
3.911174629324169760e-02
-3.486224311605500004e-02
-5.107942233226109990e-02
1.497126884017349960e-02
-9.876227606173659454e-03
-6.878892201940089990e-02
7.490089657739209573e-03
3.724425840630869733e-02
-5.590684711946290048e-02
-3.242083132257139733e-02
4.322225236929429920e-02
-4.085894790406929822e-02
-5.525070879018580128e-02
3.574124273427709692e-02
4.946453112447579854e-04
-5.880156774379489970e-02
3.678494929979919930e-03
3.162826662931399885e-02
-5.532770971066389848e-02
-4.005882733393450329e-02
5.269149508831170309e-02
-2.615220770315049986e-02
-5.998993991329470282e-02
1.681569694049360117e-02
3.596238763796880209e-03
-7.470989785248879911e-02
1.324022680515930068e-03
3.379188624407580138e-02
-6.478210419567830003e-02
-3.601415355945179753e-02
3.905468109712040281e-02
-3.852075532623720072e-02
-5.845100216059240239e-02
2.378178649577010126e-02
-9.684880359310690454e-03
-6.288242230007069777e-02
-5.909942669135979758e-03
1.870720936640039855e-02
-5.248759104041639950e-02
-2.612221655274060000e-02
2.902260599911750047e-02
-2.048005741349500156e-02
-5.086424414447129894e-02
3.257687177501990272e-02
-3.048309198487330111e-04
-8.019470186002650158e-02
-1.045188217335510004e-04
2.668202779025089996e-02
-5.787724712498559798e-02
-3.528074566593879940e-02
4.681581065691980265e-02
-3.725194323249229889e-02
-6.886584711149010274e-02
2.363111767797099888e-02
-9.376981520533119591e-03
-8.911729781059410382e-02
-2.223591683966679930e-02
2.194888092386030123e-02
-7.837830433661349683e-02
-3.901207031223320049e-02
2.310883379373120106e-02
-4.772087815389280258e-02
-6.399854003987009987e-02
4.220375485890760087e-02
-1.723947682312099855e-02
-5.809930329278620298e-02
6.405621593183880025e-02
8.915734711041549410e-02
4.736664518224829867e-02
6.060744967738149885e-02
3.371354002632059865e-02
-5.341154798510969887e-02
-1.171533517089369952e-01
-2.676993051439819846e-02
-5.955802750100010201e-02
-1.091255093889099970e-01
-6.330122649546200686e-02
-5.411919953539499895e-02
-1.310540549348890027e-01
-9.975301429584740309e-02
-3.296621231567260085e-02
-1.552962993430939964e-01
-6.797010216991319909e-02
1.973170333755389916e-01
3.903383968676419902e-01
4.662359366300429797e-01
4.985057398942769891e-01
6.477267443872110342e-02
-6.208749464607669910e-02
-8.428874083614229518e-02
-2.110058733394760012e-03
-8.891383780087269706e-02
-1.210947803171090048e-01
-3.223565188058039738e-02
-5.947917043084820221e-02
-1.088357151197320016e-01
-6.561811135569950437e-02
-1.986081131957790138e-02
-9.927343564907130380e-02
-5.871256488977660143e-02
9.735628305011370187e-04
-7.615580181751679945e-02
-8.333939217868839566e-02
-1.300185603105820029e-02
-1.280948957952820003e-02
-9.448271608433900237e-02
-1.600657781398200086e-02
2.013702072660290138e-02
-6.408770423614500167e-02
-3.783756109391980121e-02
4.151622615513850256e-02
-2.669995078673989899e-02
-3.742181608619810085e-02
3.734379460706069992e-02
2.866729115941839962e-02
-5.342673383046050301e-02
2.229213040793030093e-02
3.199081609773350016e-02
-6.867844384282459358e-02
-4.421263799085529966e-02
2.439043348747869933e-02
-6.040010925559759908e-02
-7.305827895306089836e-02
1.382039295099459983e-02
-1.901759237417249837e-02
-8.567629815147000116e-02
-1.360826564731069943e-02
-1.654583019753659914e-03
-8.411477903096059583e-02
-5.666000696690769861e-02
1.028570255686219945e-02
-6.323728043670520660e-02
-8.951859111397030000e-02
-8.967499753138740044e-04
-2.507630851985569870e-02
-9.341823700778470463e-02
-2.205921190264679976e-02
1.717343350094229946e-03
-8.350112175623559951e-02
-5.758839862364739659e-02
3.432904176073640120e-03
-5.222941179469289819e-02
-7.762423750163000014e-02
7.822334069857840230e-03
-2.542761080049489933e-02
-8.876844644521859895e-02
-1.956384790664409887e-02
1.019919169632959970e-02
-8.912480486611920605e-02
-4.576911959115970152e-02
1.937357080010169985e-02
-4.482526439803320023e-02
-8.617661809550690444e-02
5.276275262815559655e-03
-2.577119910679320086e-02
-8.859146359489010469e-02
-1.369666498910650058e-02
-4.355580943836870160e-03
-8.462079981532079354e-02
-5.574595630858319995e-02
1.467451166321650027e-02
-5.390587322730799880e-02
-6.556086890477480500e-02
5.016925310682429640e-03
-1.721083276106979976e-02
-9.159534030769619917e-02
-1.891091613159779847e-02
1.174441554595779917e-02
-7.815123026951299734e-02
-4.005505213046540308e-02
1.387473846368430033e-02
-6.073035482357280052e-02
-7.971966345547659705e-02
8.854525571761799607e-03
-1.382287675979500079e-02
-8.504159068100020091e-02
-1.571350612587970111e-02
7.096414403631140337e-03
-8.518540934627980010e-02
-4.937358094948639947e-02
1.833650416230740016e-02
-3.711680846620570018e-02
-8.320031783767829758e-02
1.024546747369299918e-02
-2.109028475109219966e-02
-8.269684235532590022e-02
-1.494955294722150052e-02
8.823390197505399588e-03
-7.574645611497700382e-02
-4.929821053371589989e-02
2.044300659462349942e-02
-5.139018312030819990e-02
-6.778542057353399708e-02
2.053923662165529906e-02
-1.761811509459949854e-02
-8.684483262038930618e-02
-7.913749161418320854e-03
5.677375658299679655e-03
-7.277948457934109439e-02
-5.203097894061829709e-02
1.398652358764600027e-02
-4.379882754006170220e-02
-6.837035277566920477e-02
1.421098365396179959e-02
-1.287052777297310012e-02
-8.552335367425580037e-02
-2.504329385417190107e-02
4.449347355902529867e-03
-7.696136891791130474e-02
-5.095366824828100050e-02
1.662159086782270118e-02
-5.881878728698650138e-02
-7.679060545350839539e-02
1.086768159882259971e-02
-1.611882541320160123e-02
-8.610890624679519434e-02
-1.211252617725079930e-02
9.225359324864450261e-03
-7.274435531001789690e-02
-4.802322595570140268e-02
1.869405806115079921e-02
-5.235927701221899933e-02
-7.209367241598750586e-02
1.028107293934430073e-02
-1.557678633376459974e-02
-7.243001609594859613e-02
-2.754066752805769958e-02
-4.682114835588759884e-03
-8.102150229802460024e-02
-4.938797745786639715e-02
2.052481094192770000e-02
-5.331057668494199736e-02
-7.400358448114059684e-02
9.654522269027219356e-03
-2.431789196896620014e-02
-8.588909742164950456e-02
-2.126928275880380151e-02
2.115106559335189988e-03
-8.667271596311869331e-02
-5.410473254692849815e-02
2.402756183004040036e-02
-5.918530656865869655e-02
-7.340527207907669716e-02
4.948182267690110284e-03
-2.141096757027529870e-02
-8.617722286464910009e-02
-2.785504513473559957e-02
1.115002553237320025e-02
-7.673114060891239596e-02
-4.995772371184389882e-02
1.427811671530299954e-02
-4.376810579032949788e-02
-7.821644853475880066e-02
6.495125895761569984e-03
-1.290989476973579929e-02
-9.908523223340820474e-02
-2.199951424541779846e-02
-3.229980077348390197e-03
-7.524065202450649914e-02
-5.183959513093060190e-02
1.823284986697450150e-02
-5.360388811253669755e-02
-7.704174329595679660e-02
-6.934042165310380038e-04
-1.546161664119550042e-02
-8.937966998973119470e-02
-2.429814500070650099e-02
-2.343628084979050216e-03
-9.327189955709930258e-02
-5.673060705476969806e-02
1.889810458374339974e-02
-5.936532704701959900e-02
-8.347754502985960112e-02
8.895839806698089408e-03
-2.578647775885279866e-02
-8.699440833026539366e-02
-2.022210713499230164e-02
5.930519569783469953e-03
-7.152364593197639564e-02
-6.026414953446609934e-02
1.174968346571949977e-02
-6.515397410389890676e-02
-7.869243573358289390e-02
-2.390405574516200199e-03
-3.172044849510709946e-02
-8.608238094118800254e-02
-2.256540564143760114e-02
-4.552235741152059825e-03
-7.840014071347960189e-02
-6.083024912883149699e-02
1.566760714279890124e-02
-6.319582323158960679e-02
-8.127688007114959590e-02
-8.147576818984949426e-03
-2.713558087900900043e-02
-9.429303278696629653e-02
-2.365743810720710022e-02
1.104151112504679969e-02
-8.421315740363879976e-02
-5.223864606279630257e-02
7.788109143918519987e-03
-4.214307861137060046e-02
-8.372208449943970010e-02
-2.751930417087680020e-03
-9.177015684406030285e-03
-1.023828515496810060e-01
-9.915590317751299398e-03
-6.965891395510670318e-03
-8.773341682928910423e-02
-6.767338442043099866e-02
1.119198827193089918e-03
-5.843728127090200286e-02
-9.825931707633059342e-02
1.059823679793990081e-03
-3.000112742455660064e-02
-1.090489139766429999e-01
-5.052809336257489681e-02
-1.696104398594600049e-02
-8.193203097115990541e-02
-5.045516243469110040e-02
1.376185321629590057e-02
-5.809363001534269960e-02
-3.158220736610860280e-02
7.591051131581280642e-02
8.242456673716010151e-02
-4.803109558764060046e-03
-1.758548576206570013e-02
-2.278849888886130132e-02
-1.321081492664669954e-01
-9.720983865089459497e-02
-4.858843755299509931e-02
-9.906828360150979340e-02
-1.500450363589999891e-01
-6.535621680858219595e-02
-9.196272552693030011e-02
-1.533646238886610114e-01
-9.072898718299139686e-02
-1.039114235776549960e-01
-1.023959670826199986e-01
1.225960950288070006e-01
4.075815786028380017e-01
4.935268262012850182e-01
4.145589448527020049e-01
3.654767576566109871e-02
-2.674743819725329888e-02
-1.594299639668559920e-01
-6.340364139583369585e-02
-4.870850647915690029e-02
-1.444707562357059882e-01
-1.113805882471620018e-01
-5.254805971964580241e-02
-8.999538797796870215e-02
-1.444306259186380059e-01
-3.500805808355129944e-02
-5.804144432970600315e-02
-1.227128770508079947e-01
-5.264481624800480125e-02
-3.582165743026460153e-02
-1.147761979897409940e-01
-8.076866922739109333e-02
4.998143364225940237e-03
-7.708739863352749577e-02
-9.404163266711419722e-02
1.410305430609420018e-03
-3.170902061797749999e-02
-9.374610980262350346e-02
-7.782695116580470168e-03
1.422152650934900044e-02
-5.637837718729279968e-02
-3.094935007007349956e-02
4.167888033919679713e-02
-2.709855689976990029e-02
-6.107169359186809948e-02
1.678976686278110114e-02
-2.134157978991979912e-02
-1.004479777575470051e-01
-5.705668096871380213e-02
-2.584514585329680120e-02
-9.719563741407019619e-02
-6.724445303647400007e-02
-1.703858934743779927e-03
-6.571337217763839611e-02
-8.551414633319599778e-02
-1.697681455569350142e-02
-3.220209430495910019e-02
-1.155925181391769946e-01
-4.351940963438719751e-02
-2.473494910299960103e-02
-1.076974435368930061e-01
-7.561056041501479363e-02
-7.490815602789119895e-04
-7.244389810744950031e-02
-1.034436951063260057e-01
-1.649898862410199840e-02
-4.190414461168800314e-02
-1.158255790034539989e-01
-3.309069024004469839e-02
-9.510625688590009646e-03
-1.131748075220949945e-01
-6.447859138679989943e-02
-2.744018654683229915e-03
-7.628172979171679580e-02
-9.402975959202830580e-02
-2.157122256825599882e-02
-5.060603745573739876e-02
-1.119312089130249932e-01
-2.198041535209810035e-02
-9.527477181061080533e-03
-9.783804359654860172e-02
-6.352079188634629503e-02
2.816966066778729856e-03
-7.438983237069900223e-02
-1.053221128593160028e-01
-9.233454120240550470e-03
-3.990329964660919992e-02
-1.128829597205250057e-01
-2.962727377551710103e-02
-2.308584831436519963e-02
-9.596174925456420202e-02
-7.730790032806950096e-02
3.796352008676580087e-03
-6.371626078353109790e-02
-9.285522714480380635e-02
-1.184703717110809941e-02
-3.632443076045269864e-02
-1.034990574363130050e-01
-2.299991785545469833e-02
-5.604473986268770219e-03
-9.241380756410509656e-02
-6.283089626915350223e-02
1.047290498976890041e-02
-6.354064892278460386e-02
-8.776817938854579448e-02
-2.407439280132009970e-03
-3.198567548631209984e-02
-9.980811325339150608e-02
-3.588022273560430297e-02
-5.028115166414899757e-03
-8.785061906656939368e-02
-6.143282110389960277e-02
1.445343568433750045e-02
-5.585444031868039977e-02
-9.143898959291810180e-02
3.645659891297089832e-03
-1.266415469266959914e-02
-1.068802997583799957e-01
-3.419293627344569680e-02
-1.558874477941529953e-02
-9.445412135030939460e-02
-6.607915802831990093e-02
-1.685121212644889906e-03
-6.074284072450730071e-02
-8.426621452214069774e-02
-2.905131974345679909e-04
-2.837335889884049986e-02
-1.021908757212239977e-01
-3.383823921221199710e-02
2.486258329452550181e-03
-8.576756990904449429e-02
-6.798076144464880455e-02
-7.355926392796429758e-04
-5.902159699500990342e-02
-9.331937840912739313e-02
-3.662860844945850037e-04
-2.871175004536819994e-02
-9.706412153175149327e-02
-3.400501007844679985e-02
-1.165742550171659959e-02
-8.440099869385700448e-02
-6.623620441184689678e-02
6.498423265727050306e-03
-6.017745649407590242e-02
-9.307694936302790545e-02
1.112943350815600013e-03
-3.372500363162669879e-02
-1.035432292852140057e-01
-2.813373355041659876e-02
-1.585359386884500075e-03
-8.620239309964719543e-02
-5.947460045325710098e-02
9.763270044365829695e-03
-7.050273567511469719e-02
-8.658722446309349841e-02
6.154991159826620102e-03
-3.574902120714899822e-02
-1.051572482868730063e-01
-2.548771605990069952e-02
-1.336598565877569929e-02
-9.335953376225410161e-02
-6.165184682027240182e-02
1.371857372385850045e-02
-5.780646073464990042e-02
-1.004750443669640003e-01
-6.239587761576750012e-03
-3.197508403950460182e-02
-1.024688048458169964e-01
-3.389244055235780123e-02
-1.735582365475949905e-03
-9.483037674646120629e-02
-5.858492006857919654e-02
4.451812664498709833e-03
-5.693808994965580267e-02
-8.729744781488510408e-02
-1.754580578440899938e-03
-3.261550545284289809e-02
-9.677402181163149986e-02
-3.361020390232560134e-02
-1.583904578815849978e-03
-1.004139454255739972e-01
-7.101076728912800173e-02
1.132706509015179996e-02
-5.927856279217370156e-02
-9.864226112734260365e-02
-1.348733416440959967e-04
-3.028683404225730041e-02
-9.886716533006849328e-02
-3.048680051488079912e-02
-4.035599729056009747e-04
-7.955963206510399677e-02
-5.378042859368629969e-02
1.486991358319609928e-02
-6.435116479226919706e-02
-9.419674719398929419e-02
3.099857893663719981e-03
-3.101417206722920095e-02
-9.941411321839670190e-02
-3.265922926743609900e-02
-5.605373601385559706e-03
-8.814076722819620680e-02
-5.921196241023340273e-02
1.031507533420259956e-02
-5.849784754299509892e-02
-8.962274073860990176e-02
-1.068427282261879933e-02
-3.442752099095400253e-02
-9.937396391144680263e-02
-3.572550312863279759e-02
5.545224330590989986e-03
-8.940524919628750622e-02
-6.064190420168390216e-02
8.500299178283519247e-03
-6.562072845673019850e-02
-9.599741098066200129e-02
-1.482374390179280006e-03
-3.422297411713390303e-02
-1.036635381138009959e-01
-3.477470582655609738e-02
-1.031669712405739944e-02
-8.862076441935050342e-02
-7.679965858599069328e-02
7.186863904448119629e-03
-6.510439518126920344e-02
-9.272197308403419547e-02
1.061549058535679949e-02
-2.899032731299550081e-02
-9.433566633383190514e-02
-2.955348885192899885e-02
-1.185037306233669915e-02
-9.022648258568080615e-02
-6.261281326174579498e-02
2.445115091260360168e-02
-7.096353595072089904e-02
-8.753188445634610404e-02
-7.113825924682779835e-03
-4.169852175808359818e-02
-1.052405657318979948e-01
-3.390876462267450320e-02
-2.079783738959279857e-02
-1.122270880069499988e-01
-6.642019551093079899e-02
-1.220357230184420001e-02
-8.347872276316810336e-02
-1.079224730064430038e-01
-2.365848063506439947e-02
-3.147002401518179948e-02
-9.012268411405920110e-02
-3.435572583148979731e-02
-6.541798705938520024e-03
-2.305707595480420077e-02
-2.985151635711330055e-03
1.112645710578200053e-01
2.876440537354160026e-02
-9.256160322292079912e-02
-2.000765223030059881e-02
-8.414762238547519868e-02
-1.616504852973900119e-01
-8.233288141800719495e-02
-4.401624973926430290e-02
-1.545735635976210054e-01
-1.316316399405360049e-01
-5.181370002406990305e-02
-1.378272186441860114e-01
-1.543021749094549977e-01
-1.131666714694079950e-01
-3.992119641866159752e-02
7.594468441651759660e-02
3.718422273291789870e-01
5.409331114158449916e-01
4.023673708370220092e-01
-3.264385253114940322e-02
6.904248084272679963e-03
-1.217750064090730028e-01
-1.229091924602490060e-01
-5.390325566653819678e-02
-8.889404309722530317e-02
-1.507271977270309982e-01
-8.097702511148439919e-02
-3.735986781791399841e-02
-1.415401699288149906e-01
-1.051283000862660022e-01
-2.689814954321950030e-02
-8.324234623455589732e-02
-1.193913105821760023e-01
-2.575076194603929947e-02
-5.341987324369960183e-02
-1.215037386135820047e-01
-2.830166637016090156e-02
-2.314746862127090021e-02
-1.047963388921989980e-01
-5.062797525963740053e-02
3.491028994298440210e-03
-5.555979614500509978e-02
-6.901473629163930312e-02
2.165107249908290038e-02
-1.211453293366670028e-02
-8.159063472857719379e-02
3.820666299023799985e-03
3.164673045711550309e-02
-6.605701086751909756e-02
-5.060948322529489757e-02
2.016267945382620164e-02
-6.228098057149839689e-02
-1.054760858154109998e-01
-2.079515240921340005e-02
-4.606415779758980117e-02
-1.013670601782149933e-01
-2.676709783978159854e-02
-2.264592963393749925e-03
-1.049568788006700060e-01
-7.227484582758500475e-02
-4.176264230086339582e-03
-7.447399435222630537e-02
-1.085089989706070068e-01
-1.947488300587019855e-02
-5.175055487400669757e-02
-1.114934208648710040e-01
-4.329767245820709959e-02
-7.592735799549740414e-03
-9.878965086953130081e-02
-6.680521895669640220e-02
-7.031025207583640156e-03
-6.886248804256270284e-02
-1.079336250664229974e-01
-3.774987680456550095e-03
-5.057811301495360179e-02
-1.079973659780300022e-01
-4.955805542246490003e-02
-1.349799418462909947e-02
-9.597652443270350553e-02
-6.527206969404210357e-02
7.384730610098900160e-03
-6.649435895207379821e-02
-9.785132196425859463e-02
-9.906303845841539155e-03
-3.411174425752999673e-02
-9.320675665266979493e-02
-4.217590616245150276e-02
-9.878797114111959390e-03
-9.733345682186660131e-02
-6.347163153705340233e-02
1.392300850815839965e-02
-7.680167824573469471e-02
-9.183429445275149983e-02
-1.506295780954780041e-02
-3.791823188335440020e-02
-1.031142568032790002e-01
-2.217753337704940139e-02
-4.883246206030000293e-03
-9.034331406000049858e-02
-5.685150756225530039e-02
2.141813692156189792e-03
-6.090798458150010336e-02
-9.032557139558859693e-02
-8.131666219959589673e-03
-3.947168631741750089e-02
-1.107302391736279951e-01
-2.847289867938139832e-02
-7.505605316331480370e-03
-9.529482153861530691e-02
-5.925413378219159671e-02
1.364146069333969924e-02
-5.917596313425790150e-02
-9.659376778192939328e-02
-1.023556738890420105e-03
-3.730682078521709716e-02
-8.896754203814230544e-02
-2.656828268049729949e-02
-3.646033444903439957e-03
-8.128427821760329797e-02
-5.784815270059409653e-02
1.179691842262279959e-03
-6.359024368039370434e-02
-8.626440460806289456e-02
-1.051549794505859947e-02
-3.584678961053650026e-02
-9.275902754697150365e-02
-2.543740096708679843e-02
-1.631228154138030005e-03
-8.827939529249549666e-02
-6.200225142090830255e-02
1.503394258481969940e-02
-6.471617037527579996e-02
-7.448042182028920266e-02
-2.153553155471580108e-04
-2.078163936721439883e-02
-9.581652846582069949e-02
-1.980859194656989924e-02
1.417059023142110000e-03
-9.012214336295659711e-02
-5.868099890190239809e-02
1.724262505595820089e-02
-6.486828771689870377e-02
-8.360841926992919337e-02
-3.059913682887520120e-04
-3.007881073846660133e-02
-9.388998732128919777e-02
-3.055164498703550127e-02
-8.057343353156389346e-03
-8.377484205445159815e-02
-6.409680051018870617e-02
1.224914585600420059e-03
-5.350432646435669681e-02
-7.672311032922329854e-02
-5.415388473735190111e-03
-3.094494134335390098e-02
-9.126847101742779911e-02
-2.472760023272370031e-02
1.780857832743910126e-04
-8.129052360847009717e-02
-4.700371565142569957e-02
1.082353873169009974e-02
-5.446742361485500117e-02
-7.989146303838359775e-02
-2.946108372858319974e-03
-2.473802589613099956e-02
-9.287417688785219727e-02
-2.635615913664239932e-02
-1.003672452588049921e-02
-8.498842579766970051e-02
-6.833220716793640681e-02
8.328997041028679896e-03
-5.676747965051100187e-02
-8.210176969546710557e-02
4.571704386316669845e-03
-1.970211262735949848e-02
-9.675562207476140486e-02
-2.543608469724559923e-02
-6.587511054231299894e-03
-8.451737910085410643e-02
-4.993571602771589707e-02
2.605639869810580031e-02
-6.628174623457840087e-02
-7.904612282983569660e-02
6.983029840420600272e-03
-2.629352135175890004e-02
-8.769679398120450164e-02
-1.773243493321029901e-02
1.529157661594090015e-03
-8.161616458007710240e-02
-6.168937434948870008e-02
1.323369716626109950e-02
-5.518469144940960081e-02
-8.528636546683120156e-02
4.649116986894100308e-03
-2.839008466405569878e-02
-9.448715514691520545e-02
-2.333969685756140042e-02
1.541071058365049967e-03
-8.695034805164679470e-02
-4.032093013345700028e-02
1.130980896398860007e-02
-4.754564042706090066e-02
-9.004937146040919993e-02
-6.945037935842460208e-03
-2.768769076704509849e-02
-9.343869011719839468e-02
-3.030557540789270005e-02
1.022520329939509941e-02
-8.495753973717909413e-02
-6.173234968163260339e-02
1.240720238747910001e-02
-7.047764887527280253e-02
-9.249441243141290347e-02
-3.552082039020439900e-04
-3.004211231241640107e-02
-8.985032462767600370e-02
-2.173090470520720047e-02
-5.688410758518529535e-04
-8.030357008346150627e-02
-5.157888844720680266e-02
2.218885406714080077e-02
-5.629830416046480157e-02
-7.580991522753209588e-02
-6.492347997429999580e-04
-1.622331545766179939e-02
-1.001704711633440020e-01
-2.266814484389850087e-02
7.642845825165830304e-03
-8.308457325977580687e-02
-3.856053876383710305e-02
1.776487132344079997e-02
-4.896411400847099776e-02
-7.936511899124930325e-02
1.267781742587359949e-02
-2.158793259522930053e-02
-7.850372620598360107e-02
-1.208193594257430011e-02
2.386552766556299891e-03
-7.344776421980420134e-02
-5.991816613800510227e-02
1.682928327866450163e-02
-5.831351516571119803e-02
-8.459888879626970004e-02
9.091660078466430291e-04
-3.787243025041010097e-02
-9.495556597363649654e-02
-2.632585487240749964e-02
-1.079229469968179950e-02
-1.013354602664470056e-01
-6.356338638415240383e-02
2.108019419072700018e-02
-3.783305557099749666e-02
-7.054743188054790615e-02
1.112319642022020078e-02
4.581011471088110298e-02
-1.888599338525260088e-02
8.735843089498650238e-02
9.665640844279620170e-02
-7.699048033891049692e-02
-7.250688485830529550e-02
-2.902874003798179905e-02
-9.551264129727070340e-02
-1.245920470873240066e-01
-4.044029476248010152e-02
-7.964974169734639897e-02
-1.566319540508110120e-01
-7.886134020368730513e-02
-5.161816053787390141e-02
-1.313259347886409911e-01
-1.579075021303560089e-01
2.381575350297330043e-02
1.393329221934929973e-01
3.223382924377550252e-01
5.573869255839639658e-01
4.685680042525319777e-01
-4.016432672811059978e-02
-1.094643221810990066e-02
-4.371487546641879968e-02
-1.007418492650120068e-01
-1.068148356181339992e-01
-2.346854143373480056e-02
-1.006975024754230008e-01
-1.319925505211969885e-01
-1.814573298189069844e-02
-6.799551207423970567e-02
-1.310620803388690137e-01
-5.326434243103909949e-02
-1.210931674106129931e-02
-1.072776723273300009e-01
-8.358708854056970394e-02
-9.637233501568509206e-03
-6.744795869614370054e-02
-7.699520813833249377e-02
-8.869109599152940823e-03
-3.128551420719279802e-02
-7.698420268332159533e-02
-7.039309719657979580e-03
8.988488840095310364e-03
-5.844463376121630110e-02
-4.085716126430739836e-02
4.345727824350439916e-02
-2.157238756833190080e-02
-4.568240799200150304e-02
3.463242488046419654e-02
6.844984634221869604e-03
-6.001525263369539981e-02
-1.561259820733090081e-02
-1.339029355668899975e-03
-7.993216047634310595e-02
-5.685067733304260268e-02
-8.251403268617619720e-04
-4.940347742405919867e-02
-7.411044924356299801e-02
1.711103890868469896e-02
-1.854017762506169828e-02
-9.523823932840899675e-02
-3.359496777605579937e-02
-8.681027517197580784e-03
-8.487193386537379702e-02
-7.481106494377809391e-02
-6.168917011794910425e-04
-5.733175107191119946e-02
-9.445062365427810136e-02
-9.464514678323430671e-03
-3.451763797009489709e-02
-1.049986731144180035e-01
-2.275812435530349953e-02
-1.080398488041969980e-02
-7.797219045652520331e-02
-5.267724127855900190e-02
1.614182683766310009e-02
-5.105922175802250079e-02
-8.110385999856549455e-02
-1.634933664163510086e-03
-2.381307271694019928e-02
-9.261344087509019996e-02
-2.781093196962719852e-02
7.055353642507490239e-03
-8.349022946468340201e-02
-4.398752381800100086e-02
1.467808044396839984e-02
-5.072701156657719729e-02
-7.932820832528469923e-02
-7.837104881885000041e-03
-1.541986571753820034e-02
-8.965539828771700026e-02
-1.133937420612999951e-02
1.157956090431390070e-02
-6.575369990843110690e-02
-5.870541987994899735e-02
1.943857255981289861e-02
-4.418370300348679891e-02
-6.603090033803669934e-02
1.709264037632710065e-02
-1.235977770720659945e-02
-8.091465754467359883e-02
-1.158321589161910060e-02
8.245819757721510254e-03
-7.515288551106169557e-02
-3.521762879286499670e-02
1.465665798347109972e-02
-4.044598814147459809e-02
-8.316905899558370285e-02
5.453198370944659784e-03
-1.348433150451260054e-02
-8.547110205663520366e-02
-5.522117385264630092e-03
1.256479649639830054e-02
-5.782058522166579756e-02
-4.283454895226410097e-02
2.271228866365680027e-02
-4.957513565760229834e-02
-7.105521340516239570e-02
8.950728843186300104e-03
-6.050193466807310405e-03
-6.899683300128679753e-02
-2.580329896956220039e-04
9.010549606956970436e-03
-6.808836425684350324e-02
-4.156046785133889893e-02
2.387566401320969853e-02
-3.924313119770930086e-02
-6.766855302203900191e-02
1.029777352233030019e-02
-1.389179877701979954e-02
-7.374180166801709568e-02
2.682855985134329846e-04
1.204812736673720013e-02
-6.546929207138330042e-02
-4.060810316139969872e-02
3.839396239735470145e-02
-4.099295152156170324e-02
-6.231265125518140047e-02
2.463112841618080029e-02
-2.489594488422390128e-03
-6.725454039153309915e-02
-6.367139443452370269e-03
1.653670567924460030e-02
-6.266174968313599491e-02
-3.968668156348290066e-02
2.327494731085909957e-02
-4.163962284127570301e-02
-7.353544645126479373e-02
2.280310554454819880e-02
-3.847054730775549916e-04
-6.482826439071780189e-02
-5.834893927478229485e-04
2.386246755007890089e-02
-4.602600267450329685e-02
-4.491078611350009936e-02
2.827926463034299842e-02
-4.090202875611650274e-02
-6.879631645742159685e-02
4.234936616877939958e-02
-4.969464437392379953e-03
-6.375645365298629463e-02
-2.105184221995340041e-03
2.069254160002999970e-02
-5.397930592460849913e-02
-3.191823876874699817e-02
3.036948857541460142e-02
-4.038629801716180079e-02
-5.676941198962699719e-02
1.500439808902809952e-02
2.102420804982880077e-03
-6.775557514919469670e-02
-4.509568622566900199e-03
2.284340750046690016e-02
-6.515120230336170215e-02
-3.077031998037270052e-02
3.523267287551579835e-02
-3.936109759005859687e-02
-5.870244169360450126e-02
2.282746514925459991e-02
2.900677254557420008e-04
-8.475396069393589804e-02
-6.785023483234439712e-03
3.564840954025329939e-02
-7.261851947626760118e-02
-2.875027795620030066e-02
4.786798949026090100e-02
-3.280762249064329839e-02
-5.867316074863369868e-02
2.287913606954400034e-02
6.663441828336619764e-03
-6.866232226742879918e-02
-6.023260534373290308e-03
2.609062607698110076e-02
-5.734469058566340344e-02
-3.091158839375340167e-02
4.197931959262399954e-02
-2.260895487313999835e-02
-6.094855443886110224e-02
3.006821698674499999e-02
-5.462576502428330080e-03
-6.792908822516090239e-02
-3.112038385362819910e-03
3.287606955722729984e-02
-6.373068397781229966e-02
-2.549528410155270028e-02
3.248871195844189874e-02
-3.986087236300930176e-02
-5.481509965657849898e-02
3.281799266132889858e-02
-3.132424894058120045e-03
-7.493960171529019665e-02
7.825381771652369783e-03
2.590061264963650078e-02
-5.017769345808339998e-02
-4.127298561261320137e-02
3.206038056799950103e-02
-3.076466235451799994e-02
-6.080128107725919773e-02
2.345095295713999980e-02
2.063480783160079996e-04
-5.257106020993079776e-02
-4.550005493218420294e-03
2.499656968408170074e-02
-5.445509038529700030e-02
-3.224214592781800282e-02
4.010836487950240198e-02
-3.630197351307729720e-02
-5.864687522976830270e-02
3.226387925024819942e-02
9.707560393049940312e-03
-6.889077119144479400e-02
8.414593558646179389e-03
4.837967856285529944e-02
-5.499197415207920242e-02
-2.832622155519000026e-02
4.460213284898709857e-02
-2.816986195803329943e-02
-5.069063778613300264e-02
2.855703587226799886e-02
9.405280856141659540e-03
-7.555430559743180063e-02
-5.244582580335860333e-04
2.921618643562630055e-02
-6.424118127764069652e-02
-2.474608238098690086e-02
2.123041535663669835e-02
-3.479785368978580151e-02
-6.480836656688160335e-02
2.666683916517750136e-02
-1.907310982932020060e-02
-7.761556350735339393e-02
1.300586214059320025e-02
3.966750540593400043e-02
-4.295626648698370326e-02
-2.526772084485739978e-02
1.097212230687400064e-01
4.612959171377369744e-02
5.920557069999379807e-02
1.158153765634309940e-01
-3.448303725591889742e-04
-8.351700298984469917e-02
-3.076661849078700037e-02
-1.394136081613770069e-02
-1.063540888749840013e-01
-5.449492647975970328e-02
-1.402455227207330055e-02
-9.682064111364539760e-02
-1.120196619957389977e-01
-3.063167487185549862e-02
-5.817593759420049832e-02
-1.755784860562649985e-01
1.015122130678250065e-02
2.128837737231349947e-01
3.495798007050309741e-01
5.267812805521590036e-01
5.230496224876669542e-01
4.722778230444570069e-03
-5.297291005645259759e-02
-2.996050364558619852e-02
-3.089791214864689994e-02
-1.213449317262210031e-01
-4.840483944655320225e-02
-8.070636552997900032e-03
-1.075082701494440018e-01
-6.234080461954039781e-02
-5.251540985793359990e-03
-6.758485266668380620e-02
-7.599147958732779817e-02
1.823624662712320169e-02
-2.244656422129270162e-02
-9.616477816607009454e-02
-1.429820143147919956e-02
6.139719963732120228e-03
-5.321802368250490300e-02
-3.453465628714699753e-02
3.272664590114689881e-02
-2.130511215502900110e-02
-5.410805367001599725e-02
3.460814162548529749e-02
2.892877415340409930e-02
-3.850585979056810049e-02
4.098939347170670044e-02
5.008420439516599737e-02
-1.257164368855400068e-02
5.650550599895449999e-03
6.706533189855129473e-02
-1.483661176379980073e-02
-3.453394170746389852e-02
4.240266277441870346e-02
-8.360756322093930090e-03
-7.691677508846310463e-02
-5.747600168591169949e-03
3.068692879818449987e-02
-5.381816544347019921e-02
-2.528610482612559870e-02
4.215519327458309984e-02
-3.112284655810619929e-02
-6.030348453927109748e-02
1.996815636143830022e-02
-9.032548933543190287e-03
-6.932452342363649989e-02
-3.823109647521870207e-03
2.394952531294240045e-02
-6.735482364365079355e-02
-3.212642029691580026e-02
4.778075379432229763e-02
-3.644697383136519947e-02
-5.207599471585720036e-02
3.123738972601070030e-02
-9.433453316075710374e-03
-6.823214767845220408e-02
9.499283951230170012e-03
3.571074885523860265e-02
-5.659696590441570113e-02
-3.068211713761830051e-02
4.219103801690580330e-02
-2.774076337064619938e-02
-5.064133057066230043e-02
3.252460285731050005e-02
1.129555624295009927e-02
-5.556206113556509674e-02
9.067701197530560545e-03
4.483628643812170161e-02
-4.529024552964280165e-02
-1.902953096267619854e-02
4.923222339290080074e-02
-1.388227476228130058e-02
-4.866061642573579760e-02
3.357823298731019840e-02
1.682553159179640129e-02
-5.581683728542889689e-02
1.463195830664299965e-02
3.139129029821329658e-02
-4.309753928443819937e-02
-9.572694452950340077e-03
4.289975222391889664e-02
-1.553707321210429960e-02
-4.283382895236430288e-02
4.002043063377470206e-02
2.053900312883420037e-02
-4.752353835209759819e-02
1.066480920050550014e-02
3.377949573702829916e-02
-3.916455382914479921e-02
-1.338511586593390049e-02
5.227784970446650026e-02
