5.123400000000000176e-02
9.619700000000000126e-03
1.061100000000000064e-02
6.554500000000000604e-02
1.087899999999999978e-01
8.296000000000000596e-02
3.981099999999999917e-02
4.128699999999999731e-02
5.442999999999999922e-02
3.664800000000000002e-02
1.420399999999999961e-02
2.090600000000000097e-02
5.056900000000000284e-02
8.372799999999999687e-02
1.040599999999999997e-01
1.025999999999999968e-01
9.453300000000000591e-02
9.520399999999999696e-02
8.094300000000000106e-02
3.757300000000000223e-02
1.903499999999999984e-02
6.190099999999999769e-02
1.018899999999999945e-01
7.671100000000000141e-02
2.455699999999999897e-02
3.708299999999999878e-03
1.600400000000000086e-02
4.168000000000000177e-02
6.585599999999999787e-02
7.631999999999999895e-02
8.132399999999999352e-02
8.985600000000000531e-02
7.515199999999999658e-02
2.587599999999999970e-02
-1.066799999999999910e-03
3.722899999999999820e-02
9.851999999999999647e-02
1.240399999999999975e-01
9.996900000000000230e-02
4.682700000000000057e-02
1.209000000000000005e-02
2.885499999999999871e-02
6.759500000000000230e-02
8.325699999999999767e-02
7.559200000000000641e-02
6.083199999999999719e-02
3.594499999999999779e-02
4.717100000000000112e-03
1.038400000000000087e-03
3.992899999999999922e-02
7.797500000000000264e-02
7.293600000000000083e-02
4.028199999999999836e-02
1.590600000000000000e-02
1.532999999999999988e-02
3.810499999999999998e-02
7.541100000000000581e-02
1.072199999999999959e-01
1.074399999999999938e-01
7.037999999999999812e-02
2.415099999999999886e-02
3.083499999999999869e-03
2.680300000000000044e-02
8.276600000000000623e-02
1.143099999999999949e-01
8.205700000000000494e-02
1.898299999999999987e-02
-1.917100000000000054e-02
-3.479799999999999907e-03
5.687500000000000194e-02
1.073599999999999971e-01
1.006399999999999934e-01
5.360999999999999793e-02
1.156500000000000063e-02
1.737299999999999999e-03
2.876199999999999937e-02
7.581300000000000539e-02
1.118699999999999972e-01
1.085200000000000053e-01
6.339400000000000590e-02
1.092699999999999921e-02
-1.003800000000000005e-02
1.362299999999999969e-02
6.439999999999999891e-02
9.753499999999999670e-02
8.179699999999999471e-02
3.636899999999999855e-02
1.305100000000000010e-03
4.069200000000000247e-03
4.434599999999999653e-02
8.412999999999999645e-02
8.546700000000000130e-02
5.220000000000000334e-02
1.293399999999999932e-02
-5.505799999999999930e-03
9.643999999999999795e-03
5.096699999999999842e-02
9.266900000000000137e-02
9.773199999999999943e-02
5.455299999999999733e-02
5.816599999999999895e-03
-2.048799999999999927e-03
3.136200000000000099e-02
7.749599999999999544e-02
1.027200000000000057e-01
8.828300000000000036e-02
4.898299999999999876e-02
1.655099999999999974e-02
1.581499999999999920e-02
4.865799999999999986e-02
8.663200000000000067e-02
9.707200000000000550e-02
7.132900000000000351e-02
2.588499999999999829e-02
-5.084100000000000251e-03
3.289700000000000003e-03
4.350699999999999706e-02
8.652999999999999581e-02
1.004700000000000037e-01
7.351199999999999402e-02
3.011799999999999894e-02
6.077100000000000210e-03
1.963099999999999914e-02
6.261899999999999411e-02
1.035200000000000009e-01
1.115000000000000019e-01
7.649699999999999556e-02
1.830999999999999989e-02
-1.035600000000000062e-02
2.217600000000000127e-02
7.906699999999999839e-02
1.060600000000000015e-01
8.673500000000000654e-02
3.753000000000000086e-02
-4.324800000000000172e-03
-6.616399999999999712e-03
3.257000000000000173e-02
8.666699999999999404e-02
1.107999999999999957e-01
8.228100000000000691e-02
3.624200000000000338e-02
1.934699999999999961e-02
4.152700000000000141e-02
8.330999999999999517e-02
1.085399999999999976e-01
9.224799999999999667e-02
5.061999999999999833e-02
1.798699999999999952e-02
1.497599999999999973e-02
4.213200000000000278e-02
8.189299999999999358e-02
1.078699999999999937e-01
9.761899999999999744e-02
5.354400000000000132e-02
1.381199999999999962e-02
1.320499999999999972e-02
5.033300000000000274e-02
9.660699999999999843e-02
1.091899999999999954e-01
6.912699999999999401e-02
1.528900000000000051e-02
-3.613100000000000166e-03
2.106399999999999939e-02
6.683899999999999564e-02
9.613599999999999923e-02
8.319200000000000206e-02
4.055000000000000271e-02
1.991199999999999828e-03
-2.397600000000000165e-03
3.330999999999999933e-02
7.988499999999999768e-02
9.997399999999999343e-02
7.615900000000000447e-02
2.181100000000000053e-02
-1.518899999999999938e-02
1.353000000000000036e-03
5.110100000000000059e-02
9.064700000000000535e-02
9.756700000000000095e-02
7.099099999999999855e-02
2.431200000000000028e-02
-1.598300000000000068e-02
-1.594200000000000131e-02
3.111099999999999977e-02
8.105300000000000005e-02
8.946099999999999886e-02
5.936999999999999916e-02
2.109600000000000017e-02
1.001100000000000080e-02
4.077399999999999775e-02
8.208799999999999430e-02
9.543500000000000594e-02
8.218000000000000305e-02
6.465200000000000113e-02
5.762199999999999961e-02
7.093399999999999705e-02
1.147799999999999931e-01
1.767700000000000105e-01
2.088000000000000134e-01
1.786899999999999877e-01
1.107699999999999935e-01
5.107899999999999940e-02
3.439500000000000196e-02
6.247899999999999981e-02
8.564099999999999491e-02
5.891799999999999815e-02
1.544199999999999913e-03
-4.256100000000000161e-02
-5.312399999999999761e-02
-3.096199999999999994e-02
9.677099999999999244e-03
4.248500000000000193e-02
3.836099999999999927e-02
-6.547800000000000321e-03
-5.481799999999999867e-02
-6.700499999999999512e-02
-3.581600000000000061e-02
1.602200000000000152e-02
4.078299999999999981e-02
9.881700000000000206e-03
-3.789599999999999913e-02
-5.423300000000000343e-02
-4.585600000000000093e-02
-3.657699999999999840e-02
-1.886900000000000036e-02
1.674300000000000094e-02
5.355599999999999944e-02
8.828900000000000636e-02
1.627800000000000080e-01
3.037099999999999800e-01
4.641600000000000170e-01
5.769900000000000029e-01
6.304999999999999494e-01
6.256500000000000394e-01
5.077199999999999491e-01
2.753800000000000137e-01
9.248000000000000664e-02
8.117800000000000016e-02
1.190100000000000047e-01
6.291900000000000270e-02
-2.537999999999999978e-02
-4.472500000000000087e-02
-1.090499999999999976e-02
2.522699999999999942e-02
4.254399999999999848e-02
3.154200000000000059e-02
-2.785300000000000102e-03
-3.880900000000000322e-02
-5.186400000000000038e-02
-3.173700000000000132e-02
1.604300000000000170e-02
6.656299999999999717e-02
7.134799999999999476e-02
1.316999999999999942e-02
-4.712100000000000316e-02
-4.750999999999999668e-02
7.527599999999999960e-04
5.219300000000000328e-02
7.146900000000000475e-02
4.647099999999999842e-02
8.501700000000000272e-05
-3.060399999999999926e-02
-2.264499999999999846e-02
1.870499999999999940e-02
5.507700000000000096e-02
5.249600000000000100e-02
1.750300000000000120e-02
-1.921199999999999991e-02
-2.456200000000000050e-02
1.229099999999999984e-02
6.053100000000000147e-02
8.056299999999999573e-02
6.012900000000000189e-02
1.537200000000000025e-02
-1.575100000000000111e-02
-4.473099999999999819e-03
4.043399999999999772e-02
8.672199999999999354e-02
1.009099999999999997e-01
7.182199999999999696e-02
2.691599999999999895e-02
4.838000000000000286e-03
2.491600000000000065e-02
7.702499999999999625e-02
1.222400000000000014e-01
1.261799999999999866e-01
8.903800000000000603e-02
3.941999999999999671e-02
2.250900000000000123e-02
5.968799999999999800e-02
1.134399999999999992e-01
1.340300000000000102e-01
1.115499999999999964e-01
6.563700000000000090e-02
2.749100000000000155e-02
2.222999999999999976e-02
5.026100000000000012e-02
8.876399999999999568e-02
1.052000000000000018e-01
8.241700000000000415e-02
3.496699999999999808e-02
-5.366199999999999790e-03
-4.612800000000000233e-03
4.200700000000000267e-02
8.572799999999999865e-02
8.046499999999999486e-02
3.833899999999999808e-02
-1.222800000000000015e-03
-7.412799999999999771e-03
2.734100000000000072e-02
7.677000000000000490e-02
1.037399999999999989e-01
8.952799999999999647e-02
4.336099999999999677e-02
2.124599999999999926e-03
-1.540700000000000099e-03
3.125000000000000000e-02
7.350500000000000089e-02
8.836700000000000110e-02
5.831700000000000078e-02
8.311699999999999991e-03
-2.232100000000000056e-02
-1.136500000000000010e-02
3.448999999999999982e-02
7.632099999999999995e-02
7.839799999999999547e-02
4.322499999999999953e-02
-3.099099999999999923e-04
-1.633099999999999830e-02
1.138300000000000076e-02
5.911600000000000188e-02
8.858599999999999808e-02
7.647099999999999731e-02
2.851000000000000062e-02
-1.441899999999999953e-02
-1.506900000000000080e-02
2.264899999999999899e-02
6.764000000000000568e-02
8.399900000000000422e-02
5.584900000000000281e-02
6.489100000000000250e-03
-2.563999999999999960e-02
-1.550900000000000022e-02
3.257399999999999879e-02
7.873099999999999543e-02
8.455600000000000616e-02
4.933699999999999891e-02
1.068200000000000052e-03
-2.030600000000000113e-02
5.856600000000000000e-03
5.559599999999999959e-02
8.817800000000000638e-02
7.882000000000000117e-02
3.239299999999999818e-02
-1.068799999999999958e-02
-1.239099999999999924e-02
2.539699999999999944e-02
7.293099999999999583e-02
9.309900000000000120e-02
6.796800000000000064e-02
2.065399999999999875e-02
-1.051099999999999951e-02
-2.726600000000000031e-03
3.904799999999999938e-02
7.910899999999999876e-02
8.314799999999999969e-02
4.920000000000000068e-02
2.527600000000000072e-03
-1.585200000000000151e-02
1.503400000000000049e-02
6.552399999999999891e-02
9.168099999999999861e-02
7.654700000000000393e-02
3.205100000000000310e-02
-7.617900000000000366e-03
-1.179700000000000019e-02
2.327500000000000055e-02
7.353200000000000014e-02
9.304800000000000570e-02
5.767800000000000010e-02
4.309799999999999916e-03
-1.738200000000000162e-02
2.043000000000000111e-03
4.321099999999999941e-02
7.887800000000000367e-02
8.571299999999999752e-02
5.536699999999999955e-02
5.572399999999999923e-03
-1.704400000000000012e-02
1.485000000000000035e-02
6.872000000000000330e-02
9.619199999999999973e-02
8.050999999999999823e-02
3.536600000000000160e-02
-4.360300000000000113e-03
-7.510400000000000409e-03
3.044200000000000031e-02
8.459800000000000653e-02
1.059599999999999986e-01
6.824399999999999911e-02
8.864399999999999710e-03
-1.944900000000000101e-02
-1.349200000000000052e-03
4.643100000000000005e-02
8.903099999999999903e-02
9.560899999999999954e-02
6.321499999999999342e-02
1.546299999999999931e-02
-8.974700000000000386e-03
1.145499999999999990e-02
5.588900000000000118e-02
8.682700000000000140e-02
8.060199999999999310e-02
4.017600000000000338e-02
1.155599999999999900e-03
-1.941900000000000093e-03
3.033900000000000138e-02
7.210400000000000142e-02
9.051299999999999624e-02
6.903099999999999514e-02
2.509099999999999872e-02
-7.845500000000000043e-03
-9.372700000000000302e-04
4.651600000000000179e-02
9.094900000000000206e-02
9.100500000000000256e-02
5.336599999999999677e-02
1.121600000000000028e-02
-2.514000000000000175e-03
2.444199999999999845e-02
6.656499999999999917e-02
8.753900000000000570e-02
7.356000000000000039e-02
3.552600000000000202e-02
2.937500000000000007e-03
1.727100000000000076e-03
3.286300000000000332e-02
7.465499999999999914e-02
9.436700000000000643e-02
7.409799999999999720e-02
3.002600000000000061e-02
-5.241700000000000179e-03
-3.298300000000000103e-03
3.817399999999999960e-02
8.168899999999999773e-02
8.847599999999999909e-02
5.670499999999999846e-02
1.202600000000000023e-02
-8.867599999999999788e-03
1.380600000000000056e-02
6.042499999999999954e-02
9.401099999999999735e-02
8.648899999999999644e-02
3.844100000000000295e-02
-7.026000000000000127e-03
-8.831200000000000855e-03
2.608399999999999955e-02
6.523900000000000532e-02
8.319300000000000306e-02
6.991899999999999504e-02
3.330000000000000321e-02
-1.905000000000000009e-03
7.279199999999999560e-04
5.058399999999999702e-02
1.010800000000000032e-01
1.041699999999999987e-01
6.233899999999999858e-02
9.287399999999999475e-03
-1.396299999999999972e-02
1.218699999999999992e-02
6.063799999999999746e-02
8.899200000000000166e-02
7.645899999999999919e-02
3.178600000000000175e-02
-5.361799999999999899e-03
-8.476000000000000027e-04
3.664499999999999702e-02
7.494000000000000661e-02
8.742400000000000171e-02
6.556399999999999728e-02
2.506099999999999994e-02
-5.102800000000000218e-03
3.263999999999999974e-03
5.127000000000000307e-02
9.541600000000000081e-02
9.449599999999999667e-02
5.532399999999999818e-02
1.118800000000000003e-02
-6.210199999999999922e-03
1.592100000000000112e-02
5.859999999999999931e-02
8.852400000000000546e-02
8.251300000000000301e-02
4.257099999999999773e-02
9.006500000000000183e-04
-9.046900000000000081e-03
2.113500000000000101e-02
7.151000000000000412e-02
9.731700000000000073e-02
7.115900000000000003e-02
2.101000000000000090e-02
-8.481400000000000050e-03
2.066300000000000081e-03
4.322499999999999953e-02
7.977499999999999869e-02
8.005600000000000216e-02
4.653000000000000191e-02
6.214500000000000406e-03
-6.733699999999999582e-03
2.276399999999999951e-02
7.091400000000000481e-02
1.002900000000000041e-01
8.893500000000000016e-02
4.284600000000000214e-02
8.924500000000000358e-04
-1.537299999999999908e-03
3.229699999999999932e-02
7.342600000000000515e-02
8.829399999999999749e-02
6.216599999999999904e-02
1.664300000000000154e-02
-1.259799999999999982e-02
-8.113900000000000496e-04
4.780199999999999727e-02
8.992300000000000293e-02
8.666500000000000592e-02
4.684300000000000269e-02
4.947000000000000008e-03
-8.188100000000000239e-03
1.796599999999999933e-02
6.292499999999999483e-02
9.280700000000000061e-02
8.331800000000000317e-02
3.753100000000000186e-02
-5.335699999999999645e-03
-8.061300000000000410e-03
2.795299999999999868e-02
7.426399999999999668e-02
9.559399999999999842e-02
7.409899999999999820e-02
2.843499999999999847e-02
-5.968700000000000394e-03
-1.322999999999999957e-03
4.258699999999999986e-02
8.742900000000000671e-02
9.419800000000000395e-02
6.101100000000000273e-02
1.404099999999999966e-02
-8.974199999999999885e-03
1.227400000000000019e-02
5.773199999999999860e-02
8.999200000000000255e-02
8.066500000000000059e-02
3.131400000000000156e-02
-1.138199999999999976e-02
-5.174800000000000233e-03
3.808899999999999786e-02
8.022300000000000264e-02
9.286400000000000210e-02
6.811399999999999400e-02
2.428400000000000003e-02
-7.136899999999999841e-03
4.766899999999999913e-04
4.626099999999999657e-02
8.958900000000000197e-02
9.143900000000000639e-02
5.380599999999999966e-02
6.398599999999999947e-03
-1.302099999999999959e-02
1.351600000000000024e-02
6.146999999999999686e-02
9.134000000000000452e-02
8.144400000000000250e-02
3.822099999999999803e-02
-1.249700000000000073e-03
-2.775600000000000029e-03
3.210500000000000159e-02
7.590199999999999725e-02
9.331799999999999817e-02
6.735299999999999621e-02
2.056099999999999942e-02
-9.841000000000000789e-03
-2.069800000000000112e-03
3.890699999999999714e-02
8.046699999999999686e-02
8.931699999999999362e-02
5.659899999999999654e-02
2.707000000000000205e-03
-2.447799999999999976e-02
4.133699999999999701e-03
5.811600000000000099e-02
8.935999999999999499e-02
7.814200000000000312e-02
3.492800000000000071e-02
-3.916900000000000069e-03
-5.664999999999999897e-03
2.836400000000000032e-02
7.115399999999999503e-02
8.740499999999999658e-02
6.061199999999999921e-02
1.473000000000000004e-02
-1.252299999999999941e-02
-4.010899999999999969e-04
4.416599999999999693e-02
8.504599999999999660e-02
8.830100000000000449e-02
5.252400000000000124e-02
3.597799999999999956e-03
-1.802099999999999883e-02
9.086399999999999685e-03
5.975699999999999762e-02
9.229199999999999904e-02
8.395299999999999985e-02
4.061700000000000033e-02
-2.519500000000000038e-03
-1.059500000000000025e-02
2.286300000000000138e-02
7.488499999999999324e-02
9.969200000000000284e-02
7.069699999999999596e-02
1.832200000000000148e-02
-1.076900000000000079e-02
9.004300000000000238e-04
4.194099999999999911e-02
8.003699999999999704e-02
8.526599999999999457e-02
5.484399999999999692e-02
1.100800000000000042e-02
-9.597700000000000675e-03
1.274800000000000065e-02
5.602599999999999941e-02
8.317599999999999993e-02
7.199500000000000344e-02
2.771200000000000052e-02
-1.080599999999999963e-02
-8.547900000000000637e-03
2.910099999999999840e-02
7.151499999999999524e-02
8.509999999999999509e-02
5.616600000000000065e-02
9.856900000000000037e-03
-1.654699999999999921e-02
-6.162800000000000396e-03
3.243700000000000055e-02
7.107600000000000029e-02
8.145199999999999663e-02
5.309799999999999937e-02
2.818000000000000192e-03
-2.404799999999999993e-02
1.699299999999999942e-03
5.599599999999999717e-02
9.467799999999999827e-02
8.924100000000000088e-02
4.208300000000000235e-02
-2.799999999999999972e-03
-3.825400000000000068e-03
3.143800000000000067e-02
6.965000000000000357e-02
8.515999999999999959e-02
6.870999999999999330e-02
3.103900000000000062e-02
-2.065599999999999901e-03
1.044199999999999903e-03
4.610999999999999821e-02
9.004099999999999604e-02
9.042699999999999350e-02
5.257699999999999874e-02
9.057799999999999532e-03
-4.219699999999999840e-03
2.699800000000000116e-02
7.208599999999999730e-02
9.014400000000000190e-02
7.258900000000000075e-02
3.522999999999999743e-02
-2.102100000000000084e-04
-1.329499999999999953e-02
1.042900000000000077e-02
5.987399999999999667e-02
8.727899999999999547e-02
6.064200000000000146e-02
8.657599999999999671e-03
-2.198599999999999860e-02
-9.579799999999999427e-03
3.645799999999999735e-02
7.438599999999999379e-02
6.800499999999999601e-02
2.615599999999999870e-02
-1.666400000000000173e-02
-2.862699999999999967e-02
9.228300000000000261e-04
5.028699999999999837e-02
8.339900000000000091e-02
7.287200000000000621e-02
2.119700000000000056e-02
-2.804299999999999848e-02
-3.257800000000000279e-02
7.780300000000000410e-03
6.267699999999999660e-02
9.243200000000000027e-02
7.503600000000000547e-02
2.923800000000000010e-02
-6.779499999999999936e-03
-4.227599999999999761e-03
3.900200000000000194e-02
9.344700000000000228e-02
1.234399999999999942e-01
1.094799999999999940e-01
6.534600000000000131e-02
4.891199999999999715e-02
9.724700000000000011e-02
1.685599999999999876e-01
1.996100000000000096e-01
1.647399999999999975e-01
7.978000000000000369e-02
8.097700000000000210e-04
-2.283299999999999913e-02
2.601099999999999745e-04
3.042900000000000119e-02
3.708000000000000185e-02
9.863000000000000239e-03
-3.729299999999999976e-02
-7.414800000000000557e-02
-6.757100000000000606e-02
-1.466300000000000069e-02
3.525899999999999868e-02
3.446799999999999864e-02
-1.230200000000000043e-02
-6.810499999999999887e-02
-8.883299999999999530e-02
-5.473999999999999699e-02
-1.565800000000000004e-03
2.152499999999999900e-02
8.720000000000000320e-03
-2.299100000000000102e-02
-6.586599999999999400e-02
-1.038599999999999940e-01
-9.249000000000000277e-02
-1.390500000000000069e-02
7.867200000000000581e-02
1.363999999999999935e-01
1.832499999999999962e-01
2.636700000000000155e-01
3.830000000000000071e-01
5.125399999999999956e-01
6.195500000000000451e-01
6.582900000000000418e-01
5.427899999999999947e-01
2.700799999999999867e-01
3.792100000000000332e-02
8.752499999999999863e-03
7.450900000000000578e-02
7.374999999999999611e-02
2.077199999999999880e-02
-1.691499999999999948e-02
-3.831899999999999890e-02
-5.105099999999999916e-02
-3.647399999999999948e-02
3.495100000000000116e-03
2.835400000000000073e-02
8.068199999999999331e-03
-4.059800000000000214e-02
-7.977800000000000169e-02
-7.188500000000000445e-02
-1.210600000000000044e-02
4.272499999999999909e-02
3.912899999999999712e-02
-6.461299999999999683e-03
-4.785400000000000070e-02
-5.798299999999999982e-02
-3.152499999999999747e-02
1.694800000000000126e-02
5.745000000000000107e-02
5.715100000000000041e-02
1.115700000000000025e-02
-3.923399999999999804e-02
-5.022700000000000081e-02
-1.558299999999999963e-02
3.898999999999999688e-02
6.596000000000000474e-02
3.814499999999999835e-02
-9.950000000000000511e-03
-2.987799999999999831e-02
-1.416700000000000077e-02
1.907999999999999974e-02
4.865400000000000280e-02
5.634600000000000025e-02
3.554800000000000321e-02
-3.392199999999999946e-04
-1.862199999999999966e-02
8.163600000000000240e-04
4.028700000000000336e-02
6.779499999999999416e-02
6.361400000000000388e-02
3.078699999999999840e-02
-1.211899999999999913e-03
-2.771399999999999818e-03
3.212899999999999784e-02
8.362999999999999601e-02
1.088699999999999946e-01
8.320099999999999718e-02
3.796000000000000069e-02
1.784300000000000122e-02
3.449200000000000182e-02
7.278400000000000147e-02
1.047600000000000059e-01
1.061200000000000060e-01
7.234300000000000452e-02
2.320300000000000140e-02
-7.622399999999999662e-04
2.282000000000000001e-02
6.668699999999999628e-02
8.869299999999999407e-02
6.917099999999999638e-02
1.780800000000000091e-02
-2.594799999999999884e-02
-2.710100000000000009e-02
1.055700000000000041e-02
5.691899999999999737e-02
7.814000000000000112e-02
5.817900000000000155e-02
1.391700000000000055e-02
-2.099099999999999924e-02
-1.681500000000000009e-02
2.830600000000000130e-02
7.402300000000000546e-02
7.917699999999999738e-02
4.160099999999999909e-02
-1.113100000000000027e-02
-3.680900000000000144e-02
-1.283600000000000019e-02
3.265799999999999953e-02
5.669400000000000134e-02
4.320299999999999835e-02
3.097799999999999946e-03
-3.222599999999999770e-02
-3.453200000000000019e-02
-4.359199999999999707e-03
3.558700000000000058e-02
5.682399999999999951e-02
4.431700000000000222e-02
9.884000000000000424e-03
-1.969500000000000070e-02
-1.775399999999999895e-02
1.922899999999999957e-02
5.572599999999999776e-02
5.618100000000000177e-02
2.257599999999999885e-02
-1.832900000000000154e-02
-3.304900000000000199e-02
-6.288199999999999866e-03
3.903600000000000125e-02
6.640000000000000069e-02
5.353499999999999925e-02
6.399300000000000127e-03
-3.417300000000000199e-02
-3.169899999999999801e-02
7.758300000000000092e-03
5.215499999999999997e-02
6.823099999999999998e-02
4.228900000000000020e-02
-4.654900000000000010e-03
-3.696300000000000280e-02
-2.944499999999999895e-02
1.559900000000000002e-02
6.064200000000000146e-02
6.859500000000000319e-02
3.798200000000000187e-02
-5.830700000000000292e-03
-2.674899999999999847e-02
-5.417299999999999893e-03
3.769600000000000034e-02
6.672400000000000553e-02
6.018699999999999745e-02
2.198699999999999960e-02
-1.521199999999999983e-02
-1.935800000000000021e-02
1.190599999999999992e-02
5.557299999999999740e-02
7.562900000000000178e-02
5.221100000000000046e-02
5.268600000000000019e-03
-2.859499999999999889e-02
-2.318699999999999928e-02
2.014300000000000118e-02
6.379200000000000148e-02
6.995200000000000029e-02
3.569499999999999756e-02
-1.327099999999999981e-02
-3.554299999999999821e-02
-8.680699999999999528e-03
4.080199999999999799e-02
7.036299999999999499e-02
5.927799999999999736e-02
1.540799999999999982e-02
-2.502400000000000110e-02
-2.850400000000000156e-02
3.808600000000000093e-03
4.562399999999999789e-02
6.436300000000000354e-02
4.392499999999999877e-02
1.815299999999999943e-03
-2.893099999999999838e-02
-2.213400000000000090e-02
2.215599999999999861e-02
6.638700000000000156e-02
7.274200000000000110e-02
4.086900000000000255e-02
-3.136400000000000125e-03
-2.655599999999999974e-02
-1.139399999999999961e-02
3.068399999999999947e-02
6.880799999999999417e-02
6.777500000000000191e-02
2.038099999999999981e-02
-2.864099999999999979e-02
-3.285699999999999732e-02
7.698700000000000161e-03
6.128800000000000220e-02
8.507399999999999685e-02
5.711700000000000110e-02
5.996399999999999821e-03
-2.384800000000000114e-02
-1.357399999999999926e-02
2.709599999999999856e-02
6.628599999999999770e-02
7.335300000000000153e-02
4.207999999999999935e-02
-6.829499999999999633e-03
-3.059500000000000067e-02
-4.458000000000000157e-03
4.257299999999999973e-02
6.692499999999999838e-02
5.511300000000000227e-02
1.933299999999999949e-02
-1.437100000000000009e-02
-2.148200000000000109e-02
5.609199999999999950e-03
5.029100000000000237e-02
7.304599999999999982e-02
4.991299999999999903e-02
4.330500000000000148e-03
-2.411299999999999902e-02
-1.264299999999999972e-02
3.299300000000000149e-02
7.302999999999999770e-02
7.110800000000000454e-02
3.229400000000000326e-02
-1.240300000000000083e-02
-2.978899999999999951e-02
-5.518900000000000194e-03
4.087600000000000261e-02
7.442400000000000404e-02
6.839900000000000146e-02
2.349800000000000152e-02
-2.189199999999999827e-02
-2.939399999999999999e-02
2.854000000000000200e-03
4.883699999999999847e-02
7.088300000000000156e-02
4.866000000000000186e-02
4.106399999999999634e-03
-2.488999999999999893e-02
-1.611200000000000132e-02
2.575699999999999865e-02
6.689900000000000013e-02
7.359100000000000363e-02
4.053999999999999965e-02
-9.558099999999999929e-03
-3.334100000000000258e-02
-5.820399999999999879e-03
4.542000000000000204e-02
7.635799999999999532e-02
6.758699999999999430e-02
2.778299999999999867e-02
-1.051500000000000004e-02
-1.649899999999999978e-02
1.414400000000000032e-02
5.909799999999999776e-02
7.649300000000000543e-02
4.396599999999999814e-02
-7.060799999999999889e-03
-3.158199999999999896e-02
-1.513399999999999988e-02
2.815000000000000141e-02
6.566900000000000515e-02
6.872300000000000630e-02
3.477999999999999842e-02
-1.286699999999999997e-02
-3.415800000000000086e-02
-7.386499999999999837e-03
4.252800000000000330e-02
7.445999999999999841e-02
6.591099999999999737e-02
2.252399999999999888e-02
-2.023000000000000145e-02
-2.762500000000000025e-02
3.295600000000000092e-03
4.854599999999999888e-02
7.177200000000000246e-02
5.231100000000000333e-02
6.614000000000000087e-03
-3.016900000000000137e-02
-2.563000000000000000e-02
2.322499999999999912e-02
7.036499999999999699e-02
7.076399999999999357e-02
3.080600000000000005e-02
-1.471800000000000018e-02
-3.274699999999999833e-02
-9.723199999999999552e-03
3.466199999999999837e-02
6.591800000000000437e-02
5.966500000000000276e-02
1.820499999999999896e-02
-2.220799999999999857e-02
-2.604499999999999871e-02
8.660899999999999155e-03
5.650700000000000167e-02
7.769900000000000417e-02
5.117900000000000227e-02
3.268599999999999978e-03
-2.496599999999999861e-02
-1.379000000000000017e-02
2.838900000000000104e-02
6.425999999999999768e-02
6.129099999999999826e-02
2.723899999999999932e-02
-8.091700000000000281e-03
-1.994100000000000039e-02
3.680899999999999943e-05
3.795300000000000062e-02
6.688099999999999601e-02
6.212299999999999767e-02
2.189500000000000127e-02
-2.270300000000000096e-02
-3.731600000000000195e-02
-9.908099999999999546e-03
4.228900000000000020e-02
7.092299999999999993e-02
4.501200000000000340e-02
-4.328700000000000429e-03
-2.906999999999999862e-02
-1.314300000000000017e-02
3.000099999999999989e-02
6.667199999999999516e-02
6.696199999999999375e-02
2.975500000000000020e-02
-1.960900000000000143e-02
-4.080899999999999805e-02
-1.260799999999999942e-02
3.998899999999999677e-02
7.534200000000000619e-02
6.877300000000000080e-02
2.468899999999999914e-02
-1.827200000000000005e-02
-2.327299999999999855e-02
7.593299999999999876e-03
4.689600000000000019e-02
6.415400000000000269e-02
4.496700000000000003e-02
5.871000000000000350e-03
-2.250600000000000170e-02
-1.715900000000000064e-02
2.087999999999999926e-02
5.801400000000000307e-02
6.110600000000000059e-02
2.996899999999999911e-02
-1.129600000000000048e-02
-2.950699999999999851e-02
-7.641600000000000129e-03
3.513199999999999656e-02
6.476300000000000112e-02
5.744699999999999807e-02
1.551199999999999975e-02
-2.362600000000000117e-02
-2.421699999999999894e-02
1.101399999999999949e-02
5.406799999999999801e-02
7.367500000000000437e-02
5.455700000000000133e-02
1.032300000000000058e-02
-2.814799999999999941e-02
-2.747700000000000142e-02
1.774699999999999889e-02
6.217099999999999710e-02
6.131799999999999751e-02
2.190100000000000033e-02
-2.144300000000000025e-02
-3.450700000000000295e-02
-4.476400000000000171e-03
4.202299999999999786e-02
6.659800000000000442e-02
5.320799999999999835e-02
1.234799999999999960e-02
-2.416199999999999945e-02
-2.770699999999999899e-02
4.546500000000000194e-03
5.016500000000000126e-02
6.930400000000000449e-02
4.068000000000000088e-02
-7.878599999999999492e-03
-3.449100000000000082e-02
-2.244600000000000067e-02
1.770499999999999852e-02
5.484499999999999792e-02
5.989200000000000079e-02
2.706400000000000125e-02
-2.250900000000000123e-02
-4.446100000000000052e-02
-1.372400000000000009e-02
3.918599999999999861e-02
6.811300000000000687e-02
5.455700000000000133e-02
9.983000000000000554e-03
-2.861999999999999961e-02
-2.880500000000000074e-02
7.352000000000000028e-03
5.210700000000000054e-02
6.882900000000000129e-02
4.095399999999999735e-02
-3.965699999999999954e-03
-2.628600000000000034e-02
-1.125199999999999985e-02
2.939100000000000046e-02
6.526300000000000157e-02
6.868900000000000006e-02
3.456499999999999850e-02
-1.607199999999999948e-02
-4.065799999999999970e-02
-1.464900000000000056e-02
3.588999999999999829e-02
6.764699999999999880e-02
5.719699999999999784e-02
1.056900000000000027e-02
-3.445700000000000152e-02
-4.127600000000000019e-02
-8.514499999999999499e-03
3.779300000000000020e-02
6.222199999999999953e-02
4.506399999999999989e-02
1.412999999999999977e-03
-3.497299999999999714e-02
-3.225999999999999701e-02
1.359600000000000045e-02
6.111500000000000266e-02
6.760099999999999443e-02
3.306499999999999717e-02
-1.339500000000000066e-02
-3.420600000000000029e-02
-1.027699999999999968e-02
3.621699999999999919e-02
6.655800000000000605e-02
5.590500000000000330e-02
8.032499999999999710e-03
-3.878100000000000297e-02
-4.688599999999999712e-02
-1.308199999999999988e-02
3.679500000000000132e-02
6.019300000000000345e-02
3.402800000000000269e-02
-1.309399999999999974e-02
-3.778100000000000208e-02
-2.356099999999999861e-02
1.800799999999999970e-02
5.401899999999999757e-02
5.513799999999999951e-02
2.138299999999999923e-02
-2.232699999999999962e-02
-4.063300000000000245e-02
-1.525600000000000046e-02
3.597600000000000103e-02
7.696600000000000663e-02
7.335300000000000153e-02
2.143899999999999972e-02
-2.920899999999999885e-02
-3.096199999999999994e-02
5.945500000000000264e-03
4.408600000000000019e-02
5.652399999999999786e-02
3.509199999999999819e-02
-2.457899999999999842e-03
-2.709900000000000156e-02
-2.284299999999999872e-02
6.184000000000000261e-03
4.081800000000000012e-02
5.767800000000000010e-02
3.706399999999999972e-02
-1.439000000000000001e-02
-4.743800000000000100e-02
-2.593099999999999919e-02
2.350599999999999912e-02
5.414200000000000262e-02
4.299700000000000050e-02
-3.018499999999999916e-03
-4.441799999999999915e-02
-4.499399999999999927e-02
-1.057400000000000007e-02
2.818700000000000025e-02
4.226599999999999802e-02
2.019200000000000161e-02
-2.191799999999999998e-02
-5.361599999999999699e-02
-4.740799999999999875e-02
-2.562699999999999787e-03
3.990900000000000003e-02
4.055399999999999977e-02
2.827399999999999879e-03
-4.209600000000000147e-02
-5.742599999999999788e-02
-2.644099999999999923e-02
2.746699999999999836e-02
6.443200000000000316e-02
5.841899999999999871e-02
1.302900000000000065e-02
-3.372900000000000204e-02
-4.216000000000000303e-02
-1.827699999999999865e-04
7.072699999999999820e-02
1.155299999999999938e-01
1.000199999999999978e-01
6.036799999999999805e-02
4.867199999999999999e-02
7.654500000000000193e-02
1.223400000000000043e-01
1.410500000000000087e-01
1.017499999999999932e-01
2.932299999999999837e-02
-3.052200000000000052e-02
-5.938899999999999735e-02
-5.874499999999999861e-02
-3.271600000000000202e-02
6.843799999999999493e-04
1.146499999999999950e-03
-4.593900000000000067e-02
-9.026399999999999701e-02
-8.334500000000000242e-02
-4.217300000000000215e-02
-9.139299999999999508e-03
-7.462800000000000336e-03
-3.872199999999999948e-02
-8.278299999999999548e-02
-1.094399999999999956e-01
-9.942199999999999649e-02
-5.873099999999999848e-02
-1.473000000000000004e-02
3.289599999999999946e-04
-3.900599999999999901e-02
-1.194999999999999951e-01
-1.622899999999999898e-01
-1.068800000000000028e-01
1.154499999999999971e-02
1.280300000000000049e-01
2.177600000000000091e-01
2.879599999999999937e-01
3.580099999999999949e-01
4.406900000000000261e-01
5.406699999999999839e-01
6.206599999999999895e-01
5.581099999999999950e-01
3.046200000000000019e-01
4.002399999999999708e-02
-5.408199999999999813e-02
-2.796600000000000127e-02
-2.471600000000000012e-03
7.037599999999999759e-03
1.309699999999999927e-02
-1.088599999999999984e-02
-6.766500000000000292e-02
-1.047300000000000036e-01
-8.494799999999999573e-02
-3.298700000000000243e-02
4.292599999999999714e-03
-2.587400000000000116e-03
-5.084600000000000231e-02
-9.138200000000000489e-02
-8.068500000000000671e-02
-3.777799999999999908e-02
-4.698199999999999599e-03
3.316899999999999796e-03
-1.117800000000000044e-02
-4.323599999999999666e-02
-7.508399999999999797e-02
-7.123799999999999577e-02
-2.114500000000000060e-02
2.917600000000000054e-02
3.286800000000000138e-02
-7.552599999999999592e-03
-5.872000000000000136e-02
-7.839699999999999447e-02
-4.656699999999999728e-02
4.869100000000000338e-03
3.083800000000000083e-02
1.896700000000000122e-02
-1.604600000000000123e-02
-4.741000000000000075e-02
-5.110800000000000065e-02
-2.043199999999999877e-02
2.709699999999999956e-02
5.065399999999999764e-02
2.621300000000000019e-02
-1.809799999999999950e-02
-4.025900000000000312e-02
-2.760299999999999906e-02
8.297600000000000461e-03
4.510900000000000326e-02
6.030300000000000243e-02
4.051500000000000240e-02
-2.743999999999999911e-03
-2.338700000000000154e-02
8.142299999999999885e-03
5.816799999999999748e-02
7.915500000000000314e-02
6.285100000000000409e-02
2.703699999999999853e-02
-4.466399999999999711e-03
-1.078899999999999998e-02
1.665600000000000067e-02
6.238799999999999901e-02
8.414299999999999558e-02
5.573600000000000082e-02
2.466900000000000169e-03
-3.327100000000000196e-02
-2.894800000000000151e-02
9.453700000000000644e-03
4.604400000000000159e-02
4.605299999999999672e-02
7.384299999999999892e-03
-4.435200000000000253e-02
-6.961100000000000620e-02
-4.644700000000000217e-02
4.061399999999999733e-03
4.258499999999999786e-02
4.086999999999999661e-02
-6.343499999999999963e-04
-4.281499999999999889e-02
-4.683899999999999869e-02
-1.290400000000000054e-02
3.113300000000000095e-02
4.788400000000000295e-02
1.912099999999999911e-02
-2.913800000000000071e-02
-5.707500000000000073e-02
-4.714200000000000335e-02
-8.136799999999999589e-03
2.784800000000000123e-02
3.100500000000000131e-02
1.396799999999999908e-03
-3.824400000000000022e-02
-6.071800000000000114e-02
-5.069499999999999701e-02
-1.340599999999999951e-02
2.689199999999999924e-02
3.147099999999999898e-02
-1.280500000000000041e-02
-6.101000000000000173e-02
-6.520199999999999607e-02
-2.761299999999999866e-02
1.971200000000000035e-02
3.930100000000000260e-02
1.362900000000000049e-02
-3.135199999999999793e-02
-5.614700000000000246e-02
-4.339699999999999808e-02
-2.717600000000000137e-03
3.139900000000000330e-02
2.901600000000000013e-02
-4.889700000000000296e-03
-4.306100000000000205e-02
-5.793299999999999839e-02
-3.781400000000000039e-02
3.400400000000000037e-03
3.712499999999999828e-02
3.491199999999999859e-02
-6.600899999999999823e-03
-4.971199999999999924e-02
-5.571099999999999663e-02
-2.264899999999999899e-02
2.364099999999999882e-02
4.374999999999999722e-02
1.678199999999999831e-02
-3.022999999999999993e-02
-5.590300000000000130e-02
-4.492800000000000266e-02
-7.178699999999999665e-03
3.150300000000000322e-02
4.464400000000000313e-02
2.194300000000000070e-02
-2.253099999999999895e-02
-5.269599999999999979e-02
-4.297499999999999931e-02
-3.766300000000000203e-03
3.368600000000000066e-02
3.513000000000000150e-02
-7.587199999999999674e-03
-5.346399999999999764e-02
-5.882099999999999829e-02
-2.388300000000000145e-02
2.251799999999999982e-02
4.355099999999999943e-02
2.038500000000000034e-02
-2.347499999999999934e-02
-5.020000000000000157e-02
-4.280799999999999883e-02
-8.697699999999999182e-03
2.579100000000000142e-02
3.389099999999999752e-02
6.204799999999999899e-03
-4.111599999999999977e-02
-6.634700000000000319e-02
-4.278699999999999865e-02
6.827999999999999868e-03
4.142300000000000149e-02
3.562099999999999989e-02
-7.364500000000000386e-03
-4.993500000000000022e-02
-5.506799999999999889e-02
-2.057099999999999901e-02
2.719299999999999842e-02
4.596299999999999691e-02
1.413000000000000020e-02
-3.692700000000000149e-02
-6.177200000000000052e-02
-4.510800000000000226e-02
-6.013200000000000229e-04
3.876799999999999691e-02
4.353400000000000325e-02
9.986300000000000038e-03
-3.919999999999999873e-02
-6.235799999999999677e-02
-3.640100000000000280e-02
1.043999999999999963e-02
3.580699999999999855e-02
2.537299999999999972e-02
-9.583500000000000005e-03
-4.225600000000000189e-02
-4.756799999999999917e-02
-2.017599999999999949e-02
2.201699999999999838e-02
4.314300000000000079e-02
2.198500000000000107e-02
-2.204000000000000056e-02
-5.309500000000000330e-02
-4.636500000000000343e-02
-3.598899999999999929e-03
3.869899999999999729e-02
4.395099999999999701e-02
9.577999999999999708e-03
-3.926099999999999729e-02
-6.316700000000000093e-02
-4.005700000000000233e-02
7.190300000000000163e-03
3.929200000000000054e-02
3.501499999999999752e-02
-9.379300000000000137e-04
-3.896700000000000164e-02
-4.839000000000000246e-02
-2.027599999999999889e-02
2.699100000000000110e-02
4.902900000000000313e-02
1.899700000000000000e-02
-3.359800000000000286e-02
-6.274799999999999822e-02
-5.052999999999999853e-02
-7.496599999999999965e-03
3.459099999999999675e-02
4.472600000000000187e-02
1.542400000000000021e-02
-3.350100000000000300e-02
-6.090799999999999687e-02
-4.115900000000000114e-02
5.602000000000000209e-03
4.024099999999999899e-02
3.478500000000000342e-02
-1.011500000000000073e-02
-5.371900000000000286e-02
-5.601400000000000129e-02
-2.125000000000000153e-02
2.032600000000000032e-02
4.090300000000000186e-02
2.719399999999999942e-02
-1.368800000000000051e-02
-5.574199999999999988e-02
-6.029799999999999743e-02
-1.525600000000000046e-02
3.393199999999999689e-02
3.910099999999999687e-02
2.921599999999999892e-03
-4.214600000000000291e-02
-6.088299999999999962e-02
-3.669200000000000239e-02
1.012500000000000032e-02
4.309199999999999836e-02
3.598799999999999916e-02
-9.006800000000000569e-03
-5.201999999999999680e-02
-5.460799999999999682e-02
-1.740699999999999886e-02
3.054899999999999977e-02
4.932299999999999879e-02
1.974000000000000060e-02
-3.063600000000000004e-02
-5.929100000000000342e-02
-4.402600000000000263e-02
6.133300000000000383e-03
4.723100000000000215e-02
4.139600000000000224e-02
-1.893200000000000048e-03
-4.701099999999999723e-02
-6.249600000000000294e-02
-3.728200000000000264e-02
8.822299999999999934e-03
4.210499999999999660e-02
3.752599999999999686e-02
-3.464800000000000085e-03
-4.451299999999999701e-02
-4.977600000000000080e-02
-1.896899999999999975e-02
2.252300000000000135e-02
4.158900000000000097e-02
2.071399999999999977e-02
-2.368400000000000019e-02
-5.864699999999999774e-02
-5.702200000000000324e-02
-1.715600000000000111e-02
2.514100000000000015e-02
3.295599999999999918e-02
4.003999999999999747e-03
-3.754199999999999898e-02
-5.584200000000000275e-02
-3.178600000000000175e-02
1.281599999999999927e-02
4.105600000000000221e-02
3.062499999999999944e-02
-1.369199999999999931e-02
-5.410700000000000232e-02
-5.551099999999999784e-02
-2.203099999999999850e-02
1.801499999999999976e-02
3.532300000000000023e-02
1.679299999999999890e-02
-2.218600000000000086e-02
-5.171300000000000202e-02
-4.728299999999999864e-02
-8.078099999999999517e-03
3.398400000000000032e-02
4.449899999999999689e-02
1.563000000000000153e-02
-3.334999999999999770e-02
-6.255900000000000349e-02
-4.611599999999999727e-02
-3.262199999999999822e-03
2.878000000000000003e-02
2.714199999999999946e-02
-6.725199999999999755e-03
-4.367700000000000055e-02
-5.261300000000000004e-02
-2.779999999999999832e-02
1.212399999999999936e-02
3.355899999999999855e-02
1.598799999999999874e-02
-2.617699999999999888e-02
-6.034099999999999880e-02
-5.514399999999999857e-02
-7.005499999999999575e-03
3.983899999999999941e-02
4.144199999999999967e-02
1.628700000000000070e-03
-4.692700000000000343e-02
-6.778099999999999403e-02
-4.372399999999999898e-02
1.787299999999999913e-03
3.133500000000000174e-02
2.856300000000000158e-02
-2.920700000000000005e-05
-3.313900000000000179e-02
-4.707000000000000073e-02
-2.801899999999999877e-02
1.386199999999999932e-02
3.821100000000000191e-02
1.697099999999999997e-02
-2.911700000000000052e-02
-6.117700000000000221e-02
-5.480700000000000155e-02
-1.269699999999999995e-02
2.752999999999999892e-02
2.977700000000000138e-02
-3.512200000000000044e-03
-4.432300000000000129e-02
-5.920600000000000168e-02
-3.305700000000000305e-02
1.161399999999999932e-02
3.871999999999999748e-02
2.740599999999999981e-02
-1.649400000000000172e-02
-5.806499999999999856e-02
-6.384700000000000097e-02
-3.079199999999999993e-02
1.721599999999999867e-02
3.911200000000000093e-02
1.245199999999999953e-02
-3.486199999999999716e-02
-6.087100000000000150e-02
-5.107899999999999940e-02
-1.665099999999999913e-02
1.497099999999999993e-02
1.861000000000000154e-02
-9.876199999999999909e-03
-5.110800000000000065e-02
-6.878900000000000292e-02
-4.233599999999999863e-02
7.490100000000000403e-03
4.300600000000000256e-02
3.724399999999999933e-02
-8.489500000000000518e-03
-5.590699999999999836e-02
-6.582100000000000450e-02
-3.242099999999999843e-02
1.938799999999999898e-02
4.322199999999999653e-02
1.289700000000000048e-02
-4.085899999999999949e-02
-7.035800000000000387e-02
-5.525100000000000150e-02
-6.559200000000000273e-03
3.574100000000000193e-02
3.639400000000000274e-02
4.946500000000000159e-04
-4.146099999999999786e-02
-5.880200000000000010e-02
-3.832599999999999896e-02
3.678499999999999912e-03
3.565200000000000313e-02
3.162800000000000333e-02
-9.329999999999999752e-03
-5.532800000000000218e-02
-7.028099999999999625e-02
-4.005899999999999739e-02
1.806999999999999926e-02
5.269100000000000172e-02
2.869899999999999882e-02
-2.615200000000000163e-02
-6.300600000000000644e-02
-5.999000000000000166e-02
-2.371799999999999950e-02
1.681600000000000109e-02
3.009799999999999975e-02
3.596199999999999918e-03
-4.637299999999999756e-02
-7.470999999999999863e-02
-5.132899999999999963e-02
1.324000000000000090e-03
3.965699999999999781e-02
3.379200000000000259e-02
-1.511999999999999976e-02
-6.478200000000000625e-02
-7.242700000000000526e-02
-3.601399999999999740e-02
1.544799999999999993e-02
3.905499999999999944e-02
1.202100000000000043e-02
-3.852099999999999969e-02
-6.903900000000000314e-02
-5.845100000000000295e-02
-1.492199999999999950e-02
2.378200000000000106e-02
2.376100000000000087e-02
-9.684899999999999759e-03
-4.775499999999999884e-02
-6.288199999999999346e-02
-4.379899999999999766e-02
-5.909900000000000049e-03
2.249200000000000157e-02
1.870700000000000141e-02
-1.716200000000000017e-02
-5.248799999999999993e-02
-5.501899999999999846e-02
-2.612199999999999939e-02
1.072900000000000069e-02
2.902300000000000019e-02
1.528200000000000044e-02
-2.048000000000000168e-02
-5.244000000000000050e-02
-5.086399999999999949e-02
-1.002899999999999972e-02
3.257700000000000179e-02
3.718799999999999883e-02
-3.048300000000000206e-04
-5.414700000000000069e-02
-8.019500000000000239e-02
-5.314699999999999980e-02
-1.045199999999999954e-04
3.396300000000000013e-02
2.668200000000000086e-02
-1.503799999999999928e-02
-5.787699999999999789e-02
-6.776000000000000079e-02
-3.528099999999999986e-02
1.878200000000000008e-02
4.681600000000000344e-02
1.922099999999999850e-02
-3.725200000000000039e-02
-7.552999999999999992e-02
-6.886599999999999666e-02
-2.221300000000000011e-02
2.363099999999999923e-02
2.841700000000000129e-02
-9.376999999999999919e-03
-6.133199999999999763e-02
-8.911700000000000177e-02
-7.112999999999999878e-02
-2.223599999999999882e-02
2.149300000000000169e-02
2.194899999999999976e-02
-2.789300000000000113e-02
-7.837800000000000322e-02
-7.973900000000000432e-02
-3.901199999999999807e-02
6.496199999999999718e-03
2.310900000000000107e-02
-1.773300000000000006e-03
-4.772099999999999953e-02
-7.874299999999999355e-02
-6.399900000000000033e-02
-5.574499999999999594e-03
4.220399999999999846e-02
3.252599999999999936e-02
-1.723900000000000085e-02
-6.010800000000000171e-02
-5.809899999999999787e-02
-3.069699999999999859e-03
6.405600000000000183e-02
9.616299999999999848e-02
8.915700000000000014e-02
6.499000000000000610e-02
4.736699999999999938e-02
4.992599999999999816e-02
6.060700000000000115e-02
5.702499999999999930e-02
3.371400000000000091e-02
-3.333700000000000205e-03
-5.341200000000000114e-02
-1.045500000000000040e-01
-1.171500000000000041e-01
-7.461099999999999677e-02
-2.676999999999999866e-02
-2.483199999999999991e-02
-5.955799999999999983e-02
-9.552800000000000180e-02
-1.091300000000000048e-01
-9.369199999999999751e-02
-6.330099999999999616e-02
-4.322499999999999953e-02
-5.411900000000000044e-02
-9.381499999999999562e-02
-1.310499999999999998e-01
-1.357599999999999918e-01
-9.975299999999999445e-02
-4.581199999999999856e-02
-3.296600000000000225e-02
-9.054600000000000148e-02
-1.552999999999999936e-01
-1.504099999999999882e-01
-6.797000000000000264e-02
5.974299999999999750e-02
1.973199999999999954e-01
3.148799999999999932e-01
3.903400000000000203e-01
4.244499999999999940e-01
4.662399999999999878e-01
5.297800000000000287e-01
4.985100000000000087e-01
2.966099999999999848e-01
6.477299999999999724e-02
-4.118299999999999739e-02
-6.208700000000000330e-02
-8.438199999999999867e-02
-8.428900000000000281e-02
-3.652999999999999997e-02
-2.110100000000000170e-03
-2.996800000000000158e-02
-8.891400000000000692e-02
-1.276899999999999979e-01
-1.210900000000000032e-01
-7.569900000000000240e-02
-3.223600000000000076e-02
-2.907799999999999968e-02
-5.947899999999999715e-02
-9.297099999999999809e-02
-1.088400000000000062e-01
-9.904000000000000303e-02
-6.561799999999999577e-02
-2.689100000000000171e-02
-1.986100000000000018e-02
-5.825199999999999823e-02
-9.927300000000000013e-02
-9.794300000000000228e-02
-5.871300000000000130e-02
-1.372400000000000009e-02
9.735600000000000503e-04
-2.979300000000000004e-02
-7.615600000000000147e-02
-9.705900000000000638e-02
-8.333899999999999642e-02
-4.924400000000000305e-02
-1.300199999999999967e-02
5.847500000000000267e-03
-1.280899999999999921e-02
-6.283600000000000296e-02
-9.448299999999999754e-02
-7.064600000000000046e-02
-1.600700000000000039e-02
2.294900000000000065e-02
2.013699999999999865e-02
-2.094400000000000081e-02
-6.408800000000000607e-02
-7.174400000000000222e-02
-3.783799999999999664e-02
1.436800000000000056e-02
4.151599999999999735e-02
1.838599999999999957e-02
-2.670000000000000151e-02
-4.991899999999999810e-02
-3.742199999999999693e-02
-6.928400000000000140e-04
3.734400000000000219e-02
5.254400000000000043e-02
2.866700000000000151e-02
-2.317500000000000115e-02
-5.342700000000000227e-02
-2.832399999999999848e-02
2.229199999999999932e-02
4.949100000000000027e-02
3.199099999999999860e-02
-2.017700000000000049e-02
-6.867800000000000293e-02
-7.753500000000000669e-02
-4.421300000000000230e-02
4.460600000000000329e-03
2.438999999999999849e-02
-7.482899999999999795e-03
-6.040000000000000230e-02
-8.828800000000000536e-02
-7.305799999999999794e-02
-2.682199999999999862e-02
1.382000000000000069e-02
1.640099999999999891e-02
-1.901800000000000018e-02
-6.584500000000000075e-02
-8.567600000000000215e-02
-5.949299999999999727e-02
-1.360800000000000030e-02
1.176499999999999942e-02
-1.654599999999999994e-03
-4.469800000000000162e-02
-8.411499999999999533e-02
-8.892600000000000504e-02
-5.666000000000000203e-02
-1.075899999999999947e-02
1.028600000000000000e-02
-1.461100000000000072e-02
-6.323700000000000154e-02
-9.651700000000000557e-02
-8.951900000000000135e-02
-4.528700000000000087e-02
-8.967499999999999777e-04
6.811099999999999620e-03
-2.507600000000000107e-02
-7.145700000000000662e-02
-9.341800000000000104e-02
-6.942299999999999860e-02
-2.205899999999999875e-02
9.554800000000000446e-03
1.717299999999999946e-03
-4.153899999999999954e-02
-8.350100000000000577e-02
-8.854800000000000171e-02
-5.758800000000000030e-02
-1.656200000000000033e-02
3.432900000000000014e-03
-1.329400000000000026e-02
-5.222899999999999765e-02
-8.290300000000000447e-02
-7.762399999999999856e-02
-3.433400000000000341e-02
7.822300000000000780e-03
1.007599999999999989e-02
-2.542799999999999921e-02
-6.966799999999999382e-02
-8.876799999999999968e-02
-6.626400000000000345e-02
-1.956400000000000153e-02
1.667300000000000032e-02
1.019899999999999973e-02
-4.107299999999999840e-02
-8.912499999999999589e-02
-8.783699999999999841e-02
-4.576899999999999719e-02
1.110299999999999991e-04
1.937399999999999886e-02
9.882199999999999676e-05
-4.482499999999999679e-02
-8.502500000000000335e-02
-8.617700000000000360e-02
-4.159299999999999803e-02
5.276300000000000261e-03
1.002300000000000066e-02
-2.577099999999999877e-02
-7.123599999999999377e-02
-8.859100000000000308e-02
-6.024999999999999800e-02
-1.369700000000000084e-02
1.034999999999999983e-02
-4.355600000000000270e-03
-4.673100000000000170e-02
-8.462100000000000177e-02
-8.869599999999999707e-02
-5.574599999999999694e-02
-7.984800000000000231e-03
1.467500000000000054e-02
-9.614100000000000423e-03
-5.390600000000000253e-02
-7.734900000000000109e-02
-6.556099999999999428e-02
-2.930599999999999872e-02
5.016900000000000352e-03
1.193100000000000063e-02
-1.721100000000000060e-02
-6.560000000000000553e-02
-9.159499999999999587e-02
-6.878099999999999492e-02
-1.891100000000000073e-02
1.745800000000000129e-02
1.174399999999999923e-02
-3.462400000000000200e-02
-7.815099999999999825e-02
-7.772300000000000042e-02
-4.005500000000000033e-02
1.232900000000000098e-03
1.387500000000000018e-02
-1.420800000000000014e-02
-6.072999999999999926e-02
-8.991399999999999393e-02
-7.971999999999999920e-02
-3.501100000000000045e-02
8.854499999999999524e-03
1.731600000000000153e-02
-1.382300000000000022e-02
-6.118900000000000033e-02
-8.504200000000000648e-02
-6.262099999999999611e-02
-1.571399999999999880e-02
1.635100000000000095e-02
7.096400000000000104e-03
-4.062299999999999939e-02
-8.518499999999999683e-02
-8.663099999999999967e-02
-4.937400000000000122e-02
-4.446000000000000299e-03
1.833699999999999913e-02
4.597699999999999704e-03
-3.711699999999999722e-02
-7.909399999999999764e-02
-8.319999999999999618e-02
-3.828999999999999765e-02
1.024500000000000063e-02
1.481500000000000004e-02
-2.109000000000000111e-02
-6.479200000000000237e-02
-8.269700000000000661e-02
-5.948500000000000315e-02
-1.494999999999999975e-02
1.588200000000000028e-02
8.823400000000000340e-03
-3.361200000000000299e-02
-7.574599999999999389e-02
-8.203000000000000569e-02
-4.929800000000000154e-02
-1.824300000000000054e-03
2.044299999999999937e-02
-4.288499999999999777e-03
-5.138999999999999818e-02
-8.006199999999999428e-02
-6.778499999999999803e-02
-2.120000000000000009e-02
2.053900000000000170e-02
2.132399999999999921e-02
-1.761800000000000171e-02
-6.711599999999999511e-02
-8.684500000000000552e-02
-5.733300000000000202e-02
-7.913699999999999207e-03
1.842600000000000141e-02
5.677399999999999981e-03
-3.482799999999999785e-02
-7.277899999999999647e-02
-7.990800000000000680e-02
-5.203100000000000086e-02
-9.086500000000000826e-03
1.398699999999999943e-02
-3.266600000000000146e-03
-4.379899999999999766e-02
-7.391499999999999460e-02
-6.837000000000000022e-02
-2.724400000000000086e-02
1.421099999999999967e-02
1.992999999999999980e-02
-1.287100000000000050e-02
-6.016300000000000120e-02
-8.552300000000000180e-02
-6.789299999999999502e-02
-2.504299999999999929e-02
7.893499999999999475e-03
4.449299999999999783e-03
-3.561199999999999782e-02
-7.696100000000000163e-02
-8.322200000000000431e-02
-5.095399999999999929e-02
-4.325200000000000398e-03
1.662200000000000136e-02
-1.003800000000000005e-02
-5.881900000000000323e-02
-8.816200000000000425e-02
-7.679099999999999815e-02
-3.182600000000000012e-02
1.086799999999999919e-02
1.706299999999999831e-02
-1.611900000000000138e-02
-6.393899999999999584e-02
-8.610900000000000498e-02
-6.051100000000000229e-02
-1.211300000000000050e-02
1.816999999999999865e-02
9.225399999999999920e-03
-3.235299999999999981e-02
-7.274400000000000310e-02
-7.910300000000000664e-02
-4.802300000000000318e-02
-2.507199999999999793e-03
1.869399999999999881e-02
-5.816199999999999669e-03
-5.235900000000000276e-02
-8.155500000000000249e-02
-7.209400000000000530e-02
-2.961199999999999943e-02
1.028100000000000021e-02
1.413999999999999979e-02
-1.557700000000000057e-02
-5.333299999999999846e-02
-7.242999999999999439e-02
-6.004400000000000015e-02
-2.754099999999999951e-02
-5.316799999999999781e-04
-4.682099999999999804e-03
-4.287200000000000039e-02
-8.102199999999999680e-02
-8.398600000000000509e-02
-4.938800000000000134e-02
-1.421799999999999974e-03
2.052500000000000158e-02
-5.010599999999999603e-03
-5.331099999999999728e-02
-8.372300000000000575e-02
-7.400400000000000034e-02
-3.026799999999999977e-02
9.654499999999999887e-03
1.077200000000000032e-02
-2.431799999999999934e-02
-6.743899999999999895e-02
-8.588899999999999313e-02
-6.435200000000000642e-02
-2.126899999999999971e-02
9.613800000000000470e-03
2.115099999999999966e-03
-4.268899999999999778e-02
-8.667300000000000004e-02
-9.167599999999999361e-02
-5.410500000000000032e-02
-2.366600000000000008e-04
2.402800000000000075e-02
-6.343999999999999813e-03
-5.918500000000000150e-02
-8.680000000000000215e-02
-7.340499999999999803e-02
-3.214700000000000196e-02
4.948199999999999821e-03
9.053300000000000236e-03
-2.141099999999999948e-02
-6.387900000000000522e-02
-8.617700000000000360e-02
-7.007399999999999740e-02
-2.785500000000000129e-02
1.010699999999999966e-02
1.115000000000000019e-02
-3.128800000000000331e-02
-7.673099999999999365e-02
-8.259900000000000575e-02
-4.995800000000000241e-02
-7.070100000000000169e-03
1.427800000000000076e-02
-2.458399999999999908e-03
-4.376800000000000135e-02
-7.864300000000000457e-02
-7.821599999999999386e-02
-3.851099999999999662e-02
6.495100000000000179e-03
1.871199999999999947e-02
-1.290999999999999960e-02
-6.849399999999999933e-02
-9.908500000000000640e-02
-7.337000000000000466e-02
-2.199999999999999872e-02
6.760699999999999696e-03
-3.229999999999999798e-03
-4.005999999999999839e-02
-7.524100000000000232e-02
-8.142800000000000038e-02
-5.183999999999999719e-02
-5.127399999999999840e-03
1.823299999999999921e-02
-6.054099999999999759e-03
-5.360399999999999887e-02
-8.371399999999999675e-02
-7.704199999999999937e-02
-3.984399999999999747e-02
-6.934000000000000493e-04
1.070800000000000050e-02
-1.546200000000000005e-02
-6.250799999999999412e-02
-8.938000000000000111e-02
-6.958599999999999508e-02
-2.429800000000000015e-02
6.837700000000000375e-03
-2.343599999999999937e-03
-4.902399999999999813e-02
-9.327199999999999380e-02
-9.596799999999999775e-02
-5.673099999999999671e-02
-4.578600000000000378e-03
1.889800000000000160e-02
-7.815199999999999578e-03
-5.936500000000000110e-02
-9.310999999999999832e-02
-8.347799999999999665e-02
-3.549999999999999684e-02
8.895800000000000582e-03
1.071000000000000077e-02
-2.578599999999999989e-02
-6.933499999999999386e-02
-8.699400000000000188e-02
-6.404899999999999483e-02
-2.022200000000000039e-02
1.036300000000000068e-02
5.930500000000000008e-03
-3.087200000000000014e-02
-7.152400000000000424e-02
-8.513700000000000434e-02
-6.026399999999999813e-02
-1.280500000000000041e-02
1.175000000000000003e-02
-1.548599999999999977e-02
-6.515400000000000358e-02
-9.161900000000000599e-02
-7.869199999999999806e-02
-3.799899999999999806e-02
-2.390399999999999990e-03
-8.055700000000000274e-04
-3.171999999999999820e-02
-7.059200000000000197e-02
-8.608200000000000573e-02
-6.332500000000000628e-02
-2.256500000000000172e-02
3.185599999999999803e-03
-4.552200000000000170e-03
-4.082500000000000018e-02
-7.839999999999999747e-02
-8.874300000000000244e-02
-6.083000000000000212e-02
-1.051999999999999984e-02
1.566800000000000137e-02
-1.191200000000000071e-02
-6.319600000000000217e-02
-9.147800000000000376e-02
-8.127700000000000202e-02
-4.417800000000000199e-02
-8.147599999999999634e-03
-7.854100000000000577e-05
-2.713600000000000040e-02
-7.128700000000000314e-02
-9.429300000000000181e-02
-7.237399999999999389e-02
-2.365700000000000094e-02
1.464200000000000050e-02
1.104199999999999973e-02
-3.673900000000000082e-02
-8.421299999999999619e-02
-8.728900000000000547e-02
-5.223900000000000071e-02
-1.177100000000000021e-02
7.788100000000000057e-03
-4.999100000000000245e-03
-4.214299999999999990e-02
-7.863399999999999557e-02
-8.372200000000000475e-02
-4.872499999999999748e-02
-2.751899999999999832e-03
1.721500000000000113e-02
-9.176999999999999394e-03
-6.892399999999999916e-02
-1.023799999999999988e-01
-6.872499999999999443e-02
-9.915600000000000108e-03
1.380499999999999956e-02
-6.965899999999999696e-03
-5.022000000000000075e-02
-8.773300000000000542e-02
-9.527599999999999958e-02
-6.767299999999999705e-02
-2.382700000000000096e-02
1.119200000000000099e-03
-1.445199999999999957e-02
-5.843700000000000283e-02
-9.839000000000000523e-02
-9.825899999999999912e-02
-5.011700000000000182e-02
1.059800000000000065e-03
7.732600000000000064e-03
-3.000099999999999989e-02
-8.133600000000000552e-02
-1.090499999999999942e-01
-9.279900000000000648e-02
-5.052800000000000347e-02
-1.718700000000000089e-02
-1.696100000000000038e-02
-4.906499999999999750e-02
-8.193200000000000482e-02
-8.361100000000000476e-02
-5.045499999999999985e-02
-4.488599999999999708e-03
1.376199999999999993e-02
-1.601299999999999946e-02
-5.809399999999999981e-02
-6.563099999999999490e-02
-3.158199999999999896e-02
2.437699999999999936e-02
7.591100000000000625e-02
9.882399999999999518e-02
8.242499999999999827e-02
3.815999999999999948e-02
-4.803100000000000251e-03
-2.350500000000000159e-02
-1.758499999999999994e-02
-5.858600000000000266e-03
-2.278799999999999923e-02
-8.007899999999999741e-02
-1.321100000000000052e-01
-1.332200000000000051e-01
-9.721000000000000474e-02
-6.219100000000000322e-02
-4.858799999999999925e-02
-6.178700000000000164e-02
-9.906800000000000328e-02
-1.411900000000000099e-01
-1.500499999999999889e-01
-1.107999999999999957e-01
-6.535599999999999743e-02
-5.911000000000000282e-02
-9.196300000000000308e-02
-1.360000000000000098e-01
-1.533599999999999963e-01
-1.273499999999999910e-01
-9.072900000000000409e-02
-8.332299999999999429e-02
-1.039100000000000024e-01
-1.230500000000000066e-01
-1.024000000000000049e-01
-1.687900000000000164e-02
1.226000000000000006e-01
2.801500000000000101e-01
4.075799999999999979e-01
4.711899999999999977e-01
4.935300000000000242e-01
4.959799999999999764e-01
4.145599999999999841e-01
2.179000000000000103e-01
3.654799999999999716e-02
-1.587999999999999828e-02
-2.674699999999999994e-02
-9.763700000000000156e-02
-1.594299999999999884e-01
-1.314400000000000013e-01
-6.340400000000000202e-02
-3.035799999999999957e-02
-4.870900000000000230e-02
-1.004499999999999976e-01
-1.444699999999999873e-01
-1.455799999999999872e-01
-1.113800000000000068e-01
-7.347499999999999865e-02
-5.254799999999999749e-02
-5.679300000000000320e-02
-8.999500000000000555e-02
-1.353499999999999981e-01
-1.444300000000000028e-01
-9.411300000000000221e-02
-3.500799999999999745e-02
-2.366400000000000101e-02
-5.804100000000000231e-02
-1.034500000000000003e-01
-1.227099999999999996e-01
-9.793300000000000616e-02
-5.264499999999999735e-02
-2.534399999999999847e-02
-3.582199999999999968e-02
-7.653600000000000680e-02
-1.147799999999999931e-01
-1.184999999999999942e-01
-8.076899999999999358e-02
-2.361399999999999957e-02
4.998100000000000112e-03
-2.304000000000000145e-02
-7.708700000000000274e-02
-1.082999999999999935e-01
-9.404200000000000059e-02
-4.387100000000000027e-02
1.410299999999999965e-03
4.833099999999999896e-03
-3.170900000000000107e-02
-7.784299999999999553e-02
-9.374599999999999600e-02
-6.074299999999999838e-02
-7.782700000000000035e-03
2.257899999999999838e-02
1.422200000000000027e-02
-2.183900000000000077e-02
-5.637799999999999756e-02
-6.155700000000000061e-02
-3.094900000000000082e-02
1.654200000000000115e-02
4.167900000000000077e-02
2.050499999999999892e-02
-2.709900000000000156e-02
-6.311100000000000043e-02
-6.107200000000000129e-02
-2.181699999999999959e-02
1.678999999999999937e-02
1.683799999999999880e-02
-2.134199999999999986e-02
-7.111399999999999666e-02
-1.004499999999999976e-01
-9.162299999999999611e-02
-5.705699999999999661e-02
-2.595899999999999944e-02
-2.584499999999999992e-02
-6.074299999999999838e-02
-9.719600000000000461e-02
-9.993499999999999606e-02
-6.724399999999999822e-02
-2.269900000000000043e-02
-1.703899999999999946e-03
-2.343299999999999897e-02
-6.571299999999999364e-02
-9.204099999999999782e-02
-8.551400000000000667e-02
-5.241200000000000025e-02
-1.697699999999999904e-02
-5.432499999999999829e-03
-3.220200000000000146e-02
-8.467500000000000027e-02
-1.155899999999999983e-01
-9.273699999999999999e-02
-4.351900000000000213e-02
-1.390399999999999969e-02
-2.473500000000000004e-02
-6.764900000000000080e-02
-1.077000000000000041e-01
-1.112400000000000055e-01
-7.561099999999999766e-02
-2.551900000000000002e-02
-7.490799999999999499e-04
-2.354099999999999943e-02
-7.244399999999999451e-02
-1.079200000000000020e-01
-1.034400000000000042e-01
-6.069599999999999995e-02
-1.649899999999999978e-02
-8.430399999999999353e-03
-4.190399999999999681e-02
-9.231399999999999328e-02
-1.158300000000000024e-01
-8.745799999999999408e-02
-3.309100000000000236e-02
2.621699999999999812e-03
-9.510599999999999263e-03
-6.477600000000000025e-02
-1.131700000000000067e-01
-1.094799999999999940e-01
-6.447899999999999465e-02
-1.768199999999999980e-02
-2.743999999999999911e-03
-3.048999999999999974e-02
-7.628200000000000258e-02
-1.034100000000000019e-01
-9.403000000000000247e-02
-5.633500000000000313e-02
-2.157099999999999990e-02
-1.842799999999999994e-02
-5.060599999999999821e-02
-9.581399999999999639e-02
-1.119300000000000017e-01
-7.672900000000000553e-02
-2.197999999999999954e-02
6.334499999999999853e-03
-9.527499999999999511e-03
-5.673600000000000171e-02
-9.783799999999999442e-02
-9.977500000000000258e-02
-6.352099999999999413e-02
-1.677000000000000018e-02
2.817000000000000060e-03
-2.345099999999999962e-02
-7.438999999999999779e-02
-1.113299999999999984e-01
-1.053199999999999970e-01
-5.726699999999999846e-02
-9.233500000000000388e-03
-2.803599999999999842e-03
-3.990300000000000097e-02
-9.154299999999999937e-02
-1.128799999999999942e-01
-8.083500000000000407e-02
-2.962700000000000056e-02
-6.941000000000000121e-03
-2.308599999999999888e-02
-6.094600000000000017e-02
-9.596200000000000563e-02
-1.052000000000000018e-01
-7.730800000000000172e-02
-2.634399999999999936e-02
3.796400000000000122e-03
-1.611699999999999938e-02
-6.371599999999999486e-02
-9.746599999999999708e-02
-9.285499999999999310e-02
-5.283399999999999902e-02
-1.184699999999999989e-02
-4.774600000000000372e-03
-3.632400000000000212e-02
-8.312500000000000444e-02
-1.034999999999999948e-01
-7.422099999999999531e-02
-2.299999999999999961e-02
6.601400000000000323e-03
-5.604500000000000107e-03
-5.052399999999999947e-02
-9.241399999999999615e-02
-9.748700000000000421e-02
-6.283099999999999796e-02
-1.319400000000000087e-02
1.047299999999999967e-02
-1.436499999999999930e-02
-6.354100000000000026e-02
-9.586300000000000376e-02
-8.776799999999999879e-02
-4.422100000000000336e-02
-2.407400000000000078e-03
1.825299999999999969e-03
-3.198600000000000054e-02
-7.754600000000000382e-02
-9.980799999999999395e-02
-8.001800000000000579e-02
-3.588000000000000217e-02
-1.944100000000000038e-03
-5.028099999999999757e-03
-4.553100000000000203e-02
-8.785099999999999854e-02
-9.470699999999999952e-02
-6.143300000000000149e-02
-1.173699999999999917e-02
1.445300000000000057e-02
-6.642099999999999740e-03
-5.585400000000000087e-02
-9.401099999999999735e-02
-9.143900000000000639e-02
-4.676400000000000001e-02
3.645699999999999982e-03
1.924700000000000022e-02
-1.266399999999999991e-02
-7.174899999999999334e-02
-1.068800000000000028e-01
-8.451699999999999491e-02
-3.419300000000000117e-02
-4.756999999999999944e-03
-1.558900000000000043e-02
-5.659000000000000141e-02
-9.445399999999999630e-02
-9.788499999999999979e-02
-6.607899999999999885e-02
-2.289100000000000162e-02
-1.685099999999999923e-03
-2.006300000000000097e-02
-6.074299999999999838e-02
-9.054399999999999948e-02
-8.426599999999999369e-02
-4.227399999999999908e-02
-2.905100000000000087e-04
5.381999999999999632e-03
-2.837299999999999892e-02
-7.698800000000000088e-02
-1.021900000000000031e-01
-8.162600000000000411e-02
-3.383800000000000002e-02
3.899300000000000075e-03
2.486299999999999882e-03
-3.973200000000000343e-02
-8.576799999999999702e-02
-9.635000000000000508e-02
-6.798099999999999976e-02
-2.460299999999999987e-02
-7.355900000000000502e-04
-1.665200000000000014e-02
-5.902199999999999808e-02
-9.532200000000000395e-02
-9.331899999999999917e-02
-4.778500000000000109e-02
-3.662900000000000184e-04
5.840299999999999658e-03
-2.871200000000000141e-02
-7.496899999999999398e-02
-9.706399999999999750e-02
-7.643500000000000294e-02
-3.400500000000000050e-02
-5.747099999999999778e-03
-1.165700000000000069e-02
-4.725100000000000133e-02
-8.440100000000000380e-02
-9.355600000000000027e-02
-6.623600000000000321e-02
-1.971499999999999989e-02
6.498399999999999663e-03
-1.298700000000000028e-02
-6.017700000000000132e-02
-9.721599999999999686e-02
-9.307699999999999307e-02
-4.587700000000000111e-02
1.112900000000000000e-03
4.643600000000000332e-03
-3.372499999999999803e-02
-8.259900000000000575e-02
-1.035399999999999932e-01
-7.758800000000000419e-02
-2.813399999999999929e-02
5.193800000000000153e-03
-1.585400000000000047e-03
-4.403200000000000169e-02
-8.620200000000000085e-02
-9.260899999999999688e-02
-5.947500000000000009e-02
-1.129100000000000069e-02
9.763300000000000797e-03
-1.910999999999999852e-02
-7.050299999999999623e-02
-1.005299999999999944e-01
-8.658699999999999730e-02
-3.708100000000000285e-02
6.154999999999999881e-03
5.543199999999999864e-03
-3.574900000000000300e-02
-8.600499999999999812e-02
-1.051600000000000035e-01
-7.510200000000000209e-02
-2.548800000000000024e-02
6.477100000000000175e-04
-1.336599999999999941e-02
-5.562799999999999689e-02
-9.335999999999999854e-02
-9.647500000000000520e-02
-6.165199999999999847e-02
-1.194300000000000049e-02
1.371900000000000029e-02
-7.380300000000000228e-03
-5.780600000000000321e-02
-9.995999999999999330e-02
-1.004799999999999999e-01
-5.512500000000000039e-02
-6.239599999999999660e-03
1.947399999999999956e-03
-3.197500000000000342e-02
-7.926199999999999912e-02
-1.024700000000000055e-01
-8.125899999999999790e-02
-3.389199999999999852e-02
2.857900000000000024e-03
-1.735599999999999903e-03
-4.896199999999999858e-02
-9.482999999999999763e-02
-9.624399999999999622e-02
-5.858499999999999819e-02
-1.463300000000000017e-02
4.451799999999999681e-03
-1.477499999999999994e-02
-5.693800000000000250e-02
-9.064500000000000335e-02
-8.729699999999999960e-02
-4.454999999999999932e-02
-1.754600000000000040e-03
1.706899999999999910e-03
-3.261599999999999916e-02
-7.630199999999999483e-02
-9.677399999999999891e-02
-7.759299999999999531e-02
-3.361000000000000099e-02
2.514100000000000015e-03
-1.583900000000000065e-03
-5.002600000000000102e-02
-1.004099999999999993e-01
-1.082700000000000051e-01
-7.101100000000000467e-02
-1.734199999999999978e-02
1.132700000000000026e-02
-8.791600000000000109e-03
-5.927899999999999836e-02
-1.005500000000000005e-01
-9.864199999999999358e-02
-5.022700000000000081e-02
-1.348699999999999877e-04
6.008099999999999725e-03
-3.028700000000000142e-02
-7.736200000000000021e-02
-9.886699999999999655e-02
-7.661800000000000554e-02
-3.048700000000000021e-02
3.199000000000000021e-03
-4.035600000000000190e-04
-3.941599999999999965e-02
-7.956000000000000572e-02
-8.581300000000000039e-02
-5.378000000000000141e-02
-6.746099999999999666e-03
1.486999999999999954e-02
-1.186899999999999934e-02
-6.435100000000000542e-02
-1.013799999999999979e-01
-9.419700000000000295e-02
-4.469999999999999668e-02
3.099900000000000051e-03
6.706400000000000382e-03
-3.101399999999999990e-02
-7.822700000000000486e-02
-9.941400000000000237e-02
-7.763499999999999568e-02
-3.265900000000000053e-02
-2.299699999999999954e-04
-5.605399999999999966e-03
-4.697300000000000086e-02
-8.814099999999999713e-02
-9.284900000000000098e-02
-5.921200000000000074e-02
-1.236399999999999999e-02
1.031499999999999952e-02
-1.177899999999999954e-02
-5.849800000000000139e-02
-9.270100000000000562e-02
-8.962299999999999434e-02
-5.078499999999999681e-02
-1.068400000000000079e-02
-4.374199999999999963e-03
-3.442800000000000027e-02
-7.729099999999999859e-02
-9.937400000000000400e-02
-8.119899999999999340e-02
-3.572600000000000081e-02
4.789400000000000081e-03
5.545200000000000129e-03
-4.030099999999999655e-02
-8.940499999999999836e-02
-9.618300000000000460e-02
-6.064200000000000146e-02
-1.299900000000000014e-02
8.500300000000000564e-03
-1.587999999999999828e-02
-6.562099999999999878e-02
-1.019999999999999934e-01
-9.599699999999999900e-02
-4.831099999999999978e-02
-1.482400000000000037e-03
2.759800000000000187e-03
-3.422300000000000342e-02
-8.206499999999999906e-02
-1.036600000000000021e-01
-8.045499999999999874e-02
-3.477500000000000036e-02
-4.486799999999999990e-03
-1.031699999999999978e-02
-4.755199999999999705e-02
-8.862100000000000533e-02
-1.030400000000000066e-01
-7.679999999999999327e-02
-2.442400000000000126e-02
7.186900000000000406e-03
-1.394800000000000033e-02
-6.510399999999999521e-02
-1.017200000000000049e-01
-9.272199999999999886e-02
-3.936599999999999822e-02
1.061499999999999944e-02
1.177600000000000001e-02
-2.898999999999999841e-02
-7.557999999999999441e-02
-9.433600000000000319e-02
-7.181400000000000283e-02
-2.955299999999999941e-02
-2.772399999999999951e-03
-1.184999999999999942e-02
-5.118199999999999833e-02
-9.022600000000000064e-02
-9.773800000000000543e-02
-6.261300000000000199e-02
-3.950200000000000065e-03
2.445100000000000051e-02
-1.042299999999999997e-02
-7.096399999999999930e-02
-1.019199999999999967e-01
-8.753199999999999870e-02
-4.417999999999999705e-02
-7.113799999999999985e-03
-6.429800000000000272e-03
-4.169899999999999995e-02
-8.678900000000000503e-02
-1.052400000000000002e-01
-7.960799999999999821e-02
-3.390900000000000164e-02
-6.473800000000000041e-03
-2.079800000000000051e-02
-7.059600000000000597e-02
-1.122299999999999964e-01
-1.074200000000000016e-01
-6.642000000000000681e-02
-2.471699999999999939e-02
-1.220399999999999957e-02
-3.848700000000000038e-02
-8.347899999999999765e-02
-1.140999999999999931e-01
-1.079200000000000020e-01
-6.719899999999999485e-02
-2.365799999999999847e-02
-9.889099999999999627e-03
-3.146999999999999797e-02
-6.966999999999999582e-02
-9.012299999999999478e-02
-7.158000000000000473e-02
-3.435599999999999765e-02
-1.074800000000000061e-02
-6.541800000000000392e-03
-1.187099999999999961e-02
-2.305700000000000111e-02
-2.980400000000000063e-02
-2.985199999999999920e-03
6.167700000000000266e-02
1.112599999999999978e-01
9.794100000000000028e-02
2.876400000000000137e-02
-5.411099999999999938e-02
-9.256200000000000538e-02
-6.215799999999999798e-02
-2.000800000000000148e-02
-2.982200000000000129e-02
-8.414800000000000058e-02
-1.398300000000000098e-01
-1.616499999999999881e-01
-1.358800000000000008e-01
-8.233300000000000340e-02
-3.996799999999999659e-02
-4.401599999999999957e-02
-9.750200000000000533e-02
-1.545700000000000129e-01
-1.674100000000000033e-01
-1.316299999999999970e-01
-7.665900000000000492e-02
-5.181399999999999895e-02
-8.485499999999999987e-02
-1.378300000000000081e-01
-1.608499999999999930e-01
-1.542999999999999927e-01
-1.384299999999999975e-01
-1.131700000000000067e-01
-7.626199999999999646e-02
-3.992099999999999815e-02
-1.471099999999999925e-03
7.594499999999999862e-02
2.142799999999999983e-01
3.718400000000000039e-01
4.862699999999999800e-01
5.409300000000000219e-01
5.312299999999999800e-01
4.023700000000000054e-01
1.575000000000000011e-01
-3.264399999999999941e-02
-4.138599999999999918e-02
6.904200000000000094e-03
-3.717600000000000071e-02
-1.217799999999999994e-01
-1.490100000000000036e-01
-1.229100000000000054e-01
-8.267800000000000149e-02
-5.390299999999999953e-02
-5.584000000000000075e-02
-8.889400000000000079e-02
-1.314299999999999913e-01
-1.507300000000000029e-01
-1.294599999999999917e-01
-8.097699999999999343e-02
-3.758000000000000229e-02
-3.735999999999999738e-02
-8.839199999999999835e-02
-1.415399999999999991e-01
-1.459100000000000119e-01
-1.051300000000000012e-01
-5.390899999999999859e-02
-2.689799999999999830e-02
-4.112400000000000083e-02
-8.324199999999999655e-02
-1.205399999999999944e-01
-1.193899999999999961e-01
-7.396800000000000597e-02
-2.575099999999999958e-02
-1.797800000000000092e-02
-5.342000000000000220e-02
-1.033099999999999991e-01
-1.214999999999999969e-01
-8.443299999999999417e-02
-2.830200000000000077e-02
-3.046600000000000003e-03
-2.314700000000000091e-02
-7.068299999999999583e-02
-1.048000000000000043e-01
-9.399699999999999722e-02
-5.062799999999999939e-02
-9.461199999999999471e-03
3.491000000000000179e-03
-1.772699999999999970e-02
-5.555999999999999828e-02
-8.076899999999999358e-02
-6.901500000000000690e-02
-2.199399999999999966e-02
2.165100000000000011e-02
2.502100000000000157e-02
-1.211500000000000077e-02
-6.142899999999999749e-02
-8.159099999999999686e-02
-5.115499999999999908e-02
3.820699999999999791e-03
3.993399999999999728e-02
3.164700000000000152e-02
-1.622900000000000037e-02
-6.605700000000000460e-02
-7.957699999999999496e-02
-5.060900000000000121e-02
-3.057199999999999935e-03
2.016300000000000037e-02
-6.747699999999999705e-03
-6.228100000000000303e-02
-1.048899999999999971e-01
-1.054800000000000043e-01
-6.422799999999999343e-02
-2.079500000000000098e-02
-1.490000000000000005e-02
-4.606400000000000078e-02
-8.624199999999999922e-02
-1.013700000000000018e-01
-7.500400000000000122e-02
-2.676699999999999913e-02
7.229000000000000183e-03
-2.264599999999999860e-03
-5.460600000000000176e-02
-1.049599999999999977e-01
-1.097400000000000042e-01
-7.227500000000000591e-02
-2.508300000000000113e-02
-4.176299999999999978e-03
-2.671700000000000116e-02
-7.447399999999999853e-02
-1.116400000000000031e-01
-1.085099999999999953e-01
-6.382300000000000473e-02
-1.947499999999999926e-02
-1.661800000000000083e-02
-5.175099999999999839e-02
-9.400400000000000422e-02
-1.114900000000000058e-01
-8.941000000000000336e-02
-4.329800000000000315e-02
-5.534500000000000357e-03
-7.592699999999999970e-03
-5.302799999999999875e-02
-9.879000000000000281e-02
-1.018400000000000000e-01
-6.680500000000000327e-02
-2.535000000000000100e-02
-7.030999999999999923e-03
-2.500700000000000145e-02
-6.886200000000000654e-02
-1.095099999999999962e-01
-1.079299999999999982e-01
-5.483500000000000180e-02
-3.775000000000000144e-03
-6.875700000000000214e-03
-5.057799999999999796e-02
-9.277100000000000624e-02
-1.079999999999999988e-01
-8.970400000000000595e-02
-4.955799999999999789e-02
-1.395099999999999986e-02
-1.349799999999999958e-02
-5.355700000000000044e-02
-9.597700000000000675e-02
-1.006500000000000034e-01
-6.527199999999999669e-02
-1.611500000000000085e-02
7.384700000000000118e-03
-1.663200000000000095e-02
-6.649399999999999755e-02
-1.024999999999999939e-01
-9.785099999999999354e-02
-5.401999999999999857e-02
-9.906299999999999828e-03
-3.858799999999999904e-03
-3.411200000000000343e-02
-7.335400000000000253e-02
-9.320699999999999819e-02
-7.942399999999999460e-02
-4.217599999999999821e-02
-8.440400000000000680e-03
-9.878800000000000081e-03
-5.268699999999999772e-02
-9.733300000000000285e-02
-1.020800000000000041e-01
-6.347200000000000064e-02
-9.000199999999999867e-03
1.392299999999999961e-02
-2.030099999999999960e-02
-7.680199999999999527e-02
-1.053199999999999970e-01
-9.183399999999999896e-02
-5.176300000000000345e-02
-1.506300000000000000e-02
-8.465600000000000208e-03
-3.791800000000000032e-02
-8.337799999999999379e-02
-1.031099999999999933e-01
-7.345300000000000440e-02
-2.217799999999999980e-02
7.443800000000000416e-03
-4.883199999999999867e-03
-5.011299999999999782e-02
-9.034300000000000663e-02
-9.134100000000000552e-02
-5.685199999999999976e-02
-1.533799999999999920e-02
2.141800000000000127e-03
-1.842699999999999894e-02
-6.090799999999999687e-02
-9.381100000000000549e-02
-9.032600000000000351e-02
-4.942900000000000071e-02
-8.131700000000000386e-03
-3.838400000000000058e-03
-3.947200000000000014e-02
-8.917799999999999339e-02
-1.107299999999999951e-01
-8.125699999999999590e-02
-2.847299999999999831e-02
3.517300000000000114e-03
-7.505600000000000292e-03
-5.333899999999999753e-02
-9.529500000000000470e-02
-9.717800000000000049e-02
-5.925400000000000111e-02
-9.687400000000000524e-03
1.364100000000000035e-02
-9.032399999999999457e-03
-5.917599999999999943e-02
-9.935499999999999887e-02
-9.659399999999999931e-02
-4.815699999999999842e-02
-1.023599999999999944e-03
-3.544600000000000181e-04
-3.730699999999999988e-02
-7.607400000000000273e-02
-8.896800000000000541e-02
-6.681700000000000139e-02
-2.656800000000000134e-02
2.106300000000000186e-03
-3.645999999999999935e-03
-4.253099999999999936e-02
-8.128399999999999515e-02
-8.686599999999999877e-02
-5.784799999999999665e-02
-1.718700000000000089e-02
1.179700000000000106e-03
-2.085599999999999954e-02
-6.358999999999999375e-02
-9.257200000000000151e-02
-8.626399999999999346e-02
-4.788300000000000195e-02
-1.051500000000000004e-02
-6.244000000000000418e-03
-3.584699999999999692e-02
-7.573799999999999977e-02
-9.275899999999999423e-02
-6.962699999999999445e-02
-2.543700000000000128e-02
5.427600000000000306e-03
-1.631199999999999968e-03
-4.474199999999999705e-02
-8.827899999999999636e-02
-9.598299999999999887e-02
-6.200200000000000156e-02
-9.646300000000000013e-03
1.503400000000000049e-02
-1.416800000000000004e-02
-6.471599999999999575e-02
-8.902000000000000191e-02
-7.448000000000000453e-02
-3.598799999999999916e-02
-2.153599999999999980e-04
8.042900000000000396e-03
-2.078199999999999839e-02
-7.008300000000000640e-02
-9.581699999999999939e-02
-7.041200000000000236e-02
-1.980900000000000022e-02
1.205900000000000027e-02
1.417099999999999914e-03
-4.541800000000000004e-02
-9.012199999999999378e-02
-9.553300000000000680e-02
-5.868099999999999705e-02
-6.266700000000000048e-03
1.724300000000000138e-02
-1.211899999999999956e-02
-6.486799999999999511e-02
-9.521799999999999708e-02
-8.360800000000000176e-02
-4.004900000000000126e-02
-3.059900000000000163e-04
2.964500000000000121e-03
-3.007900000000000157e-02
-7.380799999999999861e-02
-9.389000000000000123e-02
-7.276499999999999635e-02
-3.055199999999999930e-02
-1.922000000000000097e-03
-8.057299999999999879e-03
-4.558999999999999858e-02
-8.377500000000000224e-02
-9.136299999999999977e-02
-6.409700000000000120e-02
-2.185899999999999996e-02
1.224899999999999904e-03
-1.504800000000000061e-02
-5.350400000000000295e-02
-8.138299999999999701e-02
-7.672299999999999953e-02
-4.099499999999999672e-02
-5.415399999999999901e-03
-1.304899999999999897e-03
-3.094500000000000028e-02
-7.233699999999999852e-02
-9.126800000000000190e-02
-6.893199999999999328e-02
-2.472799999999999998e-02
6.533399999999999971e-03
1.780899999999999974e-04
-4.182799999999999713e-02
-8.129100000000000215e-02
-8.177299999999999847e-02
-4.700399999999999717e-02
-5.654799999999999757e-03
1.082400000000000029e-02
-1.166999999999999982e-02
-5.446700000000000153e-02
-8.471099999999999464e-02
-7.989100000000000368e-02
-4.195800000000000224e-02
-2.946100000000000108e-03
4.569199999999999824e-03
-2.473799999999999957e-02
-7.014700000000000102e-02
-9.287399999999999822e-02
-7.021499999999999964e-02
-2.635600000000000095e-02
-5.289900000000000158e-04
-1.003700000000000078e-02
-4.722500000000000309e-02
-8.498799999999999411e-02
-9.535100000000000520e-02
-6.833200000000000385e-02
-1.985699999999999965e-02
8.328999999999999598e-03
-1.105000000000000079e-02
-5.676699999999999802e-02
-8.877000000000000168e-02
-8.210199999999999443e-02
-3.922500000000000292e-02
4.571699999999999722e-03
1.303299999999999945e-02
-1.970200000000000076e-02
-7.058599999999999597e-02
-9.675599999999999479e-02
-7.302599999999999369e-02
-2.543600000000000028e-02
3.375599999999999868e-03
-6.587499999999999606e-03
-4.701400000000000023e-02
-8.451699999999999491e-02
-8.719899999999999873e-02
-4.993600000000000122e-02
3.696399999999999859e-03
2.605599999999999930e-02
-8.967100000000000418e-03
-6.628199999999999370e-02
-9.518000000000000071e-02
-7.904600000000000515e-02
-3.271400000000000002e-02
6.982999999999999624e-03
8.508999999999999203e-03
-2.629400000000000140e-02
-7.003800000000000303e-02
-8.769699999999999718e-02
-6.275300000000000322e-02
-1.773200000000000123e-02
1.066399999999999987e-02
1.529200000000000090e-03
-3.989600000000000091e-02
-8.161599999999999411e-02
-9.120399999999999341e-02
-6.168900000000000078e-02
-1.324999999999999963e-02
1.323399999999999924e-02
-7.470899999999999937e-03
-5.518499999999999794e-02
-9.057600000000000373e-02
-8.528600000000000070e-02
-3.988300000000000178e-02
4.649099999999999761e-03
7.969499999999999154e-03
-2.838999999999999857e-02
-7.460999999999999577e-02
-9.448700000000000154e-02
-7.042099999999999749e-02
-2.333999999999999964e-02
9.770600000000000812e-03
1.541099999999999892e-03
-4.577099999999999919e-02
-8.694999999999999951e-02
-8.099399999999999655e-02
-4.032100000000000267e-02
-1.792200000000000086e-03
1.131000000000000061e-02
-7.027199999999999940e-03
-4.754599999999999799e-02
-8.599400000000000099e-02
-9.004900000000000404e-02
-5.118000000000000327e-02
-6.944999999999999785e-03
1.838000000000000007e-03
-2.768800000000000081e-02
-7.080500000000000682e-02
-9.343899999999999428e-02
-7.556999999999999829e-02
-3.030599999999999961e-02
9.638600000000000639e-03
1.022499999999999971e-02
-3.497700000000000115e-02
-8.495800000000000574e-02
-9.540200000000000069e-02
-6.173200000000000215e-02
-1.094499999999999987e-02
1.240699999999999963e-02
-1.664399999999999907e-02
-7.047799999999999898e-02
-1.035399999999999932e-01
-9.249400000000000677e-02
-4.477300000000000030e-02
-3.552100000000000092e-04
3.756999999999999923e-03
-3.004199999999999926e-02
-7.261399999999999799e-02
-8.984999999999999931e-02
-6.588600000000000012e-02
-2.173100000000000032e-02
7.306100000000000268e-03
-5.688400000000000357e-04
-4.094500000000000223e-02
-8.030400000000000038e-02
-8.546700000000000130e-02
-5.157899999999999985e-02
-1.297799999999999995e-03
2.218900000000000039e-02
-5.708500000000000033e-03
-5.629800000000000082e-02
-8.508899999999999797e-02
-7.581000000000000238e-02
-3.885600000000000165e-02
-6.492299999999999894e-04
1.149799999999999954e-02
-1.622300000000000131e-02
-6.940000000000000335e-02
-1.001699999999999952e-01
-7.621600000000000597e-02
-2.266800000000000065e-02
1.470199999999999979e-02
7.642799999999999941e-03
-4.008199999999999957e-02
-8.308500000000000607e-02
-7.941800000000000248e-02
-3.856099999999999806e-02
3.393600000000000089e-03
1.776499999999999954e-02
-4.886999999999999851e-03
-4.896400000000000058e-02
-8.388099999999999723e-02
-7.936500000000000499e-02
-3.265699999999999853e-02
1.267800000000000003e-02
1.454199999999999937e-02
-2.158799999999999955e-02
-6.333199999999999941e-02
-7.850400000000000433e-02
-5.395699999999999802e-02
-1.208200000000000073e-02
1.234799999999999960e-02
2.386600000000000006e-03
-3.495600000000000096e-02
-7.344799999999999940e-02
-8.574500000000000177e-02
-5.991799999999999904e-02
-1.064900000000000048e-02
1.682900000000000021e-02
-7.303800000000000049e-03
-5.831399999999999778e-02
-9.240099999999999703e-02
-8.459899999999999365e-02
-3.981400000000000217e-02
9.091700000000000519e-04
-3.072400000000000196e-04
-3.787200000000000288e-02
-8.005900000000000516e-02
-9.495599999999999874e-02
-6.997799999999999854e-02
-2.632599999999999871e-02
1.214999999999999934e-03
-1.079199999999999951e-02
-5.795800000000000257e-02
-1.013399999999999995e-01
-1.034400000000000042e-01
-6.356299999999999450e-02
-9.160700000000000787e-03
2.108000000000000151e-02
5.118600000000000060e-03
-3.783299999999999857e-02
-7.057399999999999785e-02
-7.054699999999999860e-02
-3.745199999999999918e-02
1.112299999999999921e-02
4.863499999999999768e-02
4.580999999999999656e-02
4.178499999999999923e-03
-1.888600000000000001e-02
1.980399999999999869e-02
8.735800000000000509e-02
1.249600000000000016e-01
9.665600000000000580e-02
8.320599999999999177e-03
-7.699000000000000288e-02
-1.001699999999999952e-01
-7.250700000000000200e-02
-3.873100000000000154e-02
-2.902899999999999925e-02
-5.258100000000000274e-02
-9.551300000000000068e-02
-1.287399999999999933e-01
-1.245900000000000063e-01
-8.195399999999999907e-02
-4.043999999999999678e-02
-3.944999999999999896e-02
-7.964999999999999858e-02
-1.324899999999999967e-01
-1.566299999999999915e-01
-1.297500000000000042e-01
-7.886100000000000054e-02
-4.775200000000000278e-02
-5.161799999999999722e-02
-8.343399999999999428e-02
-1.313300000000000023e-01
-1.711600000000000066e-01
-1.579099999999999948e-01
-7.547700000000000242e-02
2.381600000000000036e-02
9.002200000000000479e-02
1.393300000000000094e-01
2.120499999999999885e-01
3.223400000000000154e-01
4.502700000000000036e-01
5.573900000000000521e-01
5.906099999999999683e-01
4.685699999999999865e-01
1.940300000000000080e-01
-4.016399999999999831e-02
-7.521999999999999520e-02
-1.094599999999999913e-02
-2.577700000000000043e-03
-4.371499999999999692e-02
-7.629900000000000571e-02
-1.007399999999999962e-01
-1.202300000000000035e-01
-1.068100000000000022e-01
-5.745000000000000107e-02
-2.346900000000000028e-02
-4.558700000000000252e-02
-1.006999999999999978e-01
-1.412899999999999989e-01
-1.319899999999999962e-01
-7.250700000000000200e-02
-1.814599999999999894e-02
-2.083899999999999988e-02
-6.799600000000000088e-02
-1.154799999999999993e-01
-1.310600000000000098e-01
-1.044699999999999934e-01
-5.326399999999999885e-02
-1.165899999999999923e-02
-1.210899999999999997e-02
-5.791700000000000320e-02
-1.072800000000000004e-01
-1.166500000000000037e-01
-8.358699999999999464e-02
-3.502000000000000252e-02
-9.637200000000000280e-03
-2.838999999999999857e-02
-6.744799999999999407e-02
-8.873000000000000331e-02
-7.699499999999999400e-02
-4.108200000000000046e-02
-8.869099999999999553e-03
-5.455999999999999912e-03
-3.128600000000000131e-02
-6.558799999999999353e-02
-7.698399999999999688e-02
-4.991700000000000303e-02
-7.039300000000000071e-03
1.742799999999999905e-02
8.988499999999999962e-03
-2.429200000000000109e-02
-5.844499999999999695e-02
-6.833699999999999497e-02
-4.085699999999999749e-02
1.136599999999999937e-02
4.345700000000000257e-02
2.464500000000000024e-02
-2.157200000000000090e-02
-5.269399999999999779e-02
-4.568200000000000038e-02
-4.908299999999999989e-03
3.463200000000000306e-02
3.862000000000000155e-02
6.845000000000000390e-03
-3.630599999999999800e-02
-6.001499999999999890e-02
-4.799900000000000000e-02
-1.561300000000000014e-02
7.424700000000000223e-03
-1.338999999999999913e-03
-4.133699999999999875e-02
-7.993200000000000305e-02
-8.476300000000000501e-02
-5.685099999999999876e-02
-1.970900000000000082e-02
-8.251400000000000314e-04
-1.429300000000000015e-02
-4.940300000000000247e-02
-7.943400000000000460e-02
-7.410999999999999532e-02
-2.824499999999999927e-02
1.711100000000000121e-02
2.007700000000000110e-02
-1.854000000000000092e-02
-6.939099999999999435e-02
-9.523800000000000321e-02
-7.634799999999999920e-02
-3.359499999999999986e-02
-3.882500000000000100e-03
-8.680999999999999481e-03
-4.485499999999999904e-02
-8.487200000000000299e-02
-9.835599999999999898e-02
-7.481100000000000250e-02
-2.948999999999999885e-02
-6.168900000000000381e-04
-1.462199999999999958e-02
-5.733200000000000102e-02
-9.415099999999999858e-02
-9.445099999999999330e-02
-5.377400000000000235e-02
-9.464500000000000690e-03
-1.451599999999999939e-03
-3.451800000000000007e-02
-8.372100000000000375e-02
-1.049999999999999961e-01
-7.389800000000000535e-02
-2.275800000000000045e-02
2.149100000000000142e-03
-1.080399999999999937e-02
-4.630399999999999794e-02
-7.797199999999999964e-02
-8.208799999999999430e-02
-5.267700000000000160e-02
-7.334399999999999600e-03
1.614200000000000010e-02
-5.115399999999999982e-03
-5.105900000000000022e-02
-8.452900000000000691e-02
-8.110399999999999554e-02
-4.224800000000000083e-02
-1.634899999999999895e-03
5.993799999999999649e-03
-2.381300000000000083e-02
-6.880999999999999617e-02
-9.261300000000000088e-02
-7.356000000000000039e-02
-2.781099999999999892e-02
9.701400000000000648e-03
7.055399999999999866e-03
-3.894000000000000239e-02
-8.348999999999999477e-02
-8.277500000000000135e-02
-4.398799999999999932e-02
-1.336900000000000024e-03
1.467800000000000007e-02
-7.938799999999999329e-03
-5.072700000000000126e-02
-8.145900000000000363e-02
-7.932799999999999574e-02
-4.630399999999999794e-02
-7.837099999999999622e-03
7.296999999999999667e-03
-1.541999999999999968e-02
-6.322700000000000542e-02
-8.965499999999999858e-02
-6.301099999999999757e-02
-1.133900000000000012e-02
1.931300000000000031e-02
1.158000000000000002e-02
-2.541200000000000056e-02
-6.575400000000000689e-02
-8.146000000000000463e-02
-5.870500000000000024e-02
-1.044999999999999922e-02
1.943900000000000142e-02
7.893999999999999975e-04
-4.418400000000000105e-02
-7.423399999999999443e-02
-6.603100000000000636e-02
-2.372700000000000156e-02
1.709300000000000055e-02
2.146100000000000091e-02
-1.235999999999999946e-02
-5.913899999999999713e-02
-8.091500000000000081e-02
-5.742599999999999788e-02
-1.158299999999999955e-02
1.813700000000000034e-02
8.245799999999999311e-03
-3.638199999999999767e-02
-7.515299999999999758e-02
-7.151599999999999624e-02
-3.521799999999999931e-02
1.037500000000000011e-03
1.465699999999999989e-02
-1.553099999999999967e-03
-4.044600000000000278e-02
-7.908700000000000452e-02
-8.316900000000000681e-02
-4.221799999999999858e-02
5.453200000000000061e-03
1.716200000000000017e-02
-1.348399999999999946e-02
-6.245699999999999863e-02
-8.547100000000000530e-02
-5.657199999999999729e-02
-5.522100000000000272e-03
2.232299999999999909e-02
1.256499999999999978e-02
-2.274899999999999839e-02
-5.782099999999999740e-02
-6.752900000000000569e-02
-4.283499999999999808e-02
7.184399999999999857e-04
2.271199999999999955e-02
-2.107100000000000205e-03
-4.957500000000000101e-02
-7.915099999999999913e-02
-7.105499999999999317e-02
-3.147199999999999998e-02
8.950700000000000670e-03
1.956700000000000106e-02
-6.050200000000000369e-03
-4.865699999999999886e-02
-6.899700000000000277e-02
-4.422700000000000242e-02
-2.580300000000000215e-04
2.279300000000000076e-02
9.010499999999999413e-03
-3.153500000000000053e-02
-6.808799999999999575e-02
-7.219200000000000617e-02
-4.155999999999999972e-02
2.144300000000000025e-03
2.387600000000000139e-02
3.963600000000000283e-03
-3.924300000000000010e-02
-7.130100000000000326e-02
-6.766900000000000692e-02
-2.909399999999999833e-02
1.029799999999999986e-02
1.619999999999999912e-02
-1.389199999999999983e-02
-5.643399999999999805e-02
-7.374200000000000199e-02
-4.598700000000000010e-02
2.682900000000000215e-04
2.488999999999999893e-02
1.204799999999999968e-02
-2.784599999999999922e-02
-6.546899999999999942e-02
-7.257099999999999662e-02
-4.060799999999999826e-02
1.168499999999999921e-02
3.839399999999999757e-02
1.142100000000000060e-02
-4.099300000000000166e-02
-7.279199999999999560e-02
-6.231300000000000033e-02
-1.759700000000000153e-02
2.463100000000000012e-02
2.974600000000000161e-02
-2.489599999999999799e-03
-4.624199999999999838e-02
-6.725499999999999534e-02
-4.771000000000000241e-02
-6.367099999999999670e-03
2.274699999999999986e-02
1.653699999999999962e-02
-2.299500000000000155e-02
-6.266199999999999548e-02
-6.903499999999999914e-02
-3.968700000000000006e-02
2.510500000000000145e-03
2.327500000000000055e-02
3.270400000000000130e-03
-4.164000000000000340e-02
-7.752799999999999969e-02
-7.353500000000000314e-02
-2.631000000000000005e-02
2.280300000000000035e-02
3.142500000000000154e-02
-3.847100000000000216e-04
-4.430499999999999716e-02
-6.482799999999999674e-02
-4.335300000000000264e-02
-5.834899999999999852e-04
2.787699999999999900e-02
2.386200000000000127e-02
-8.188300000000000786e-03
-4.602599999999999747e-02
-6.362600000000000200e-02
-4.491099999999999953e-02
2.024200000000000034e-04
2.827899999999999858e-02
8.250300000000000342e-03
-4.090200000000000086e-02
-7.819800000000000362e-02
-6.879599999999999604e-02
-1.066600000000000013e-02
4.234899999999999776e-02
3.967600000000000293e-02
-4.969499999999999959e-03
-4.890800000000000008e-02
-6.375599999999999323e-02
-4.218399999999999928e-02
-2.105200000000000213e-03
2.618300000000000141e-02
2.069299999999999959e-02
-1.645599999999999841e-02
-5.397899999999999920e-02
-6.052799999999999847e-02
-3.191800000000000193e-02
1.100699999999999942e-02
3.036900000000000016e-02
4.851000000000000277e-03
-4.038599999999999829e-02
-6.607300000000000673e-02
-5.676900000000000002e-02
-2.123699999999999893e-02
1.500399999999999998e-02
2.606500000000000136e-02
2.102399999999999929e-03
-4.215800000000000103e-02
-6.775599999999999679e-02
-4.901400000000000201e-02
-4.509599999999999893e-03
2.866900000000000004e-02
2.284299999999999872e-02
-2.179899999999999893e-02
-6.515100000000000058e-02
-6.765500000000000680e-02
-3.076999999999999874e-02
1.609199999999999867e-02
3.523300000000000043e-02
8.419599999999999307e-03
-3.936100000000000015e-02
-6.827199999999999935e-02
-5.870199999999999724e-02
-1.800399999999999917e-02
2.282700000000000007e-02
3.226199999999999901e-02
2.900700000000000197e-04
-5.394800000000000290e-02
-8.475399999999999601e-02
-6.232300000000000340e-02
-6.785000000000000232e-03
3.844999999999999807e-02
3.564799999999999913e-02
-1.871099999999999847e-02
-7.261900000000000299e-02
-7.432300000000000018e-02
-2.875000000000000125e-02
2.568099999999999897e-02
4.786800000000000083e-02
1.940700000000000064e-02
-3.280799999999999689e-02
-6.579500000000000626e-02
-5.867300000000000293e-02
-1.868399999999999922e-02
2.287900000000000003e-02
3.414799999999999780e-02
6.663399999999999879e-03
-4.088800000000000073e-02
-6.866200000000000081e-02
-5.097100000000000242e-02
-6.023299999999999661e-03
2.881699999999999887e-02
2.609099999999999961e-02
-1.473600000000000083e-02
-5.734500000000000014e-02
-6.378399999999999348e-02
-3.091199999999999851e-02
1.661699999999999983e-02
4.197900000000000242e-02
2.370099999999999985e-02
-2.260900000000000062e-02
-6.182100000000000095e-02
-6.094900000000000317e-02
-1.562099999999999947e-02
3.006800000000000098e-02
3.186900000000000149e-02
-5.462599999999999748e-03
-4.912500000000000200e-02
-6.792900000000000327e-02
-4.797699999999999881e-02
-3.112000000000000183e-03
3.528799999999999992e-02
3.287600000000000244e-02
-1.582599999999999979e-02
-6.373099999999999599e-02
-6.460200000000000664e-02
-2.549500000000000030e-02
1.797599999999999892e-02
3.248899999999999705e-02
5.539800000000000106e-03
-3.986100000000000060e-02
-6.724299999999999722e-02
-5.481500000000000261e-02
-8.836600000000000010e-03
3.281799999999999995e-02
3.495399999999999896e-02
-3.132400000000000028e-03
-5.394000000000000183e-02
-7.494000000000000661e-02
-4.420999999999999930e-02
7.825399999999999717e-03
3.622399999999999926e-02
2.590100000000000041e-02
-1.149599999999999927e-02
-5.017800000000000038e-02
-6.402399999999999758e-02
-4.127299999999999719e-02
4.339800000000000428e-03
3.205999999999999822e-02
1.412000000000000061e-02
-3.076500000000000068e-02
-6.468300000000000438e-02
-6.080100000000000088e-02
-1.891699999999999979e-02
2.345099999999999962e-02
2.881999999999999840e-02
2.063500000000000013e-04
-3.546500000000000347e-02
-5.257099999999999967e-02
-3.902300000000000213e-02
-4.550000000000000225e-03
2.604199999999999918e-02
2.499699999999999839e-02
-1.296300000000000056e-02
-5.445500000000000340e-02
-6.301700000000000357e-02
-3.224199999999999983e-02
1.622900000000000037e-02
4.010799999999999782e-02
1.417700000000000037e-02
-3.630200000000000093e-02
-6.828099999999999448e-02
-5.864699999999999774e-02
-1.327000000000000055e-02
3.226400000000000101e-02
4.209000000000000241e-02
9.707600000000000257e-03
-4.168199999999999683e-02
-6.889099999999999391e-02
-4.547500000000000153e-02
8.414599999999999511e-03
5.105200000000000016e-02
4.837999999999999939e-02
-2.025100000000000164e-03
-5.499199999999999922e-02
-6.404400000000000370e-02
-2.832600000000000048e-02
2.144799999999999832e-02
4.460200000000000276e-02
1.985900000000000165e-02
-2.817000000000000060e-02
-5.839099999999999846e-02
-5.069099999999999995e-02
-1.184699999999999989e-02
2.855699999999999905e-02
3.952800000000000064e-02
9.405300000000000119e-03
-4.456000000000000238e-02
-7.555399999999999616e-02
-5.280200000000000171e-02
-5.244600000000000303e-04
3.649700000000000166e-02
2.921599999999999892e-02
-1.972600000000000048e-02
-6.424100000000000643e-02
-6.190699999999999675e-02
-2.474600000000000063e-02
1.040300000000000079e-02
2.122999999999999887e-02
2.950400000000000158e-03
-3.479800000000000254e-02
-6.834400000000000197e-02
-6.480800000000000449e-02
-1.771999999999999964e-02
2.666699999999999973e-02
2.367599999999999913e-02
-1.907299999999999968e-02
-6.508899999999999408e-02
-7.761600000000000443e-02
-4.237199999999999994e-02
1.300600000000000020e-02
4.664900000000000296e-02
3.966800000000000187e-02
8.270900000000000517e-04
-4.295600000000000113e-02
-6.045899999999999885e-02
-2.526799999999999879e-02
5.407800000000000107e-02
1.097199999999999981e-01
9.281000000000000361e-02
4.612999999999999740e-02
3.190899999999999986e-02
5.920600000000000168e-02
1.016200000000000020e-01
1.158200000000000063e-01
7.384300000000000586e-02
-3.448300000000000171e-04
-6.108100000000000335e-02
-8.351699999999999402e-02
-6.731499999999999984e-02
-3.076699999999999921e-02
-3.031600000000000180e-03
-1.394100000000000027e-02
-6.438800000000000079e-02
-1.063500000000000001e-01
-9.781099999999999517e-02
-5.449500000000000177e-02
-1.735499999999999890e-02
-1.402499999999999927e-02
-4.875899999999999679e-02
-9.682100000000000428e-02
-1.235200000000000048e-01
-1.120199999999999946e-01
-7.206300000000000205e-02
-3.063199999999999951e-02
-1.789699999999999971e-02
-5.817599999999999855e-02
-1.373600000000000099e-01
-1.755800000000000138e-01
-1.131800000000000028e-01
1.015100000000000030e-02
1.263400000000000079e-01
2.128800000000000137e-01
2.804900000000000171e-01
3.495800000000000018e-01
4.315899999999999737e-01
5.267800000000000260e-01
5.961199999999999832e-01
5.230500000000000149e-01
2.656399999999999872e-01
4.722800000000000088e-03
-8.174800000000000122e-02
-5.297299999999999925e-02
-3.423400000000000054e-02
-2.996100000000000152e-02
-1.745999999999999983e-02
-3.089799999999999838e-02
-8.337600000000000566e-02
-1.213400000000000034e-01
-1.025999999999999968e-01
-4.840499999999999664e-02
-5.233400000000000031e-03
-8.070600000000000690e-03
-5.901300000000000295e-02
-1.075099999999999945e-01
-1.049199999999999994e-01
-6.234100000000000058e-02
-1.935399999999999968e-02
-5.251500000000000092e-03
-2.800000000000000058e-02
-6.758500000000000618e-02
-9.137599999999999889e-02
-7.599100000000000299e-02
-2.586000000000000104e-02
1.823599999999999874e-02
1.875500000000000084e-02
-2.244700000000000167e-02
-7.483299999999999674e-02
-9.616500000000000048e-02
-6.566900000000000515e-02
-1.429799999999999995e-02
1.374200000000000074e-02
6.139699999999999672e-03
-2.394999999999999907e-02
-5.321800000000000141e-02
-5.944599999999999884e-02
-3.453500000000000320e-02
7.498399999999999684e-03
3.272699999999999915e-02
1.863899999999999932e-02
-2.130500000000000102e-02
-5.519500000000000101e-02
-5.410800000000000332e-02
-1.325100000000000063e-02
3.460799999999999987e-02
5.217499999999999916e-02
2.892899999999999985e-02
-1.655399999999999927e-02
-3.850599999999999856e-02
-8.559399999999999994e-03
4.098899999999999766e-02
6.350200000000000289e-02
5.008399999999999658e-02
1.725399999999999850e-02
-1.257199999999999984e-02
-1.940599999999999964e-02
5.650600000000000414e-03
4.830299999999999871e-02
6.706499999999999961e-02
3.686600000000000293e-02
-1.483699999999999949e-02
-4.522500000000000131e-02
-3.453400000000000220e-02
7.719900000000000026e-03
4.240300000000000319e-02
3.518500000000000100e-02
-8.360799999999999829e-03
-5.692099999999999937e-02
-7.691699999999999926e-02
-5.364200000000000218e-02
-5.747600000000000278e-03
3.195900000000000130e-02
3.068699999999999900e-02
-1.078299999999999918e-02
-5.381799999999999778e-02
-5.915700000000000125e-02
-2.528599999999999945e-02
2.113999999999999907e-02
4.215499999999999803e-02
1.745599999999999929e-02
-3.112300000000000136e-02
-6.513700000000000045e-02
-6.030300000000000243e-02
-1.974400000000000113e-02
1.996799999999999964e-02
2.333500000000000157e-02
-9.032500000000000598e-03
-5.085499999999999743e-02
-6.932499999999999774e-02
-4.797900000000000081e-02
-3.823099999999999849e-03
2.968900000000000011e-02
2.394999999999999907e-02
-2.188299999999999967e-02
-6.735499999999999821e-02
-7.166599999999999360e-02
-3.212600000000000178e-02
2.305899999999999964e-02
4.778099999999999709e-02
1.739999999999999880e-02
-3.644700000000000023e-02
-6.597799999999999498e-02
-5.207599999999999729e-02
-6.816499999999999643e-03
3.123700000000000088e-02
2.883099999999999899e-02
-9.433499999999999178e-03
-5.319000000000000117e-02
-6.823200000000000098e-02
-4.000599999999999989e-02
9.499300000000000452e-03
4.329800000000000315e-02
3.571099999999999969e-02
-1.049100000000000033e-02
-5.659700000000000147e-02
-6.425300000000000455e-02
-3.068200000000000094e-02
1.817600000000000118e-02
4.219099999999999934e-02
1.914499999999999882e-02
-2.774099999999999830e-02
-5.846400000000000208e-02
-5.064099999999999852e-02
-9.083300000000000748e-03
3.252499999999999836e-02
4.054699999999999971e-02
1.129600000000000048e-02
-3.266299999999999759e-02
-5.556200000000000028e-02
-3.639300000000000174e-02
9.067699999999999719e-03
4.640099999999999780e-02
4.483600000000000085e-02
9.120699999999999598e-04
-4.528999999999999693e-02
-5.212800000000000072e-02
-1.902999999999999831e-02
2.641999999999999904e-02
4.923199999999999799e-02
3.033399999999999985e-02
-1.388200000000000024e-02
-4.935599999999999710e-02
-4.866100000000000286e-02
-9.847699999999999163e-03
3.357799999999999674e-02
4.512599999999999945e-02
1.682600000000000068e-02
-3.095099999999999935e-02
-5.581699999999999856e-02
-3.197500000000000342e-02
1.463199999999999917e-02
4.194500000000000312e-02
3.139100000000000223e-02
-8.379100000000000437e-03
-4.309799999999999742e-02
-4.208599999999999841e-02
-9.572699999999999959e-03
2.786699999999999941e-02
4.290000000000000063e-02
2.368999999999999925e-02
-1.553700000000000046e-02
-4.637899999999999662e-02
-4.283399999999999708e-02
-2.619100000000000074e-03
4.002000000000000002e-02
4.911000000000000087e-02
2.053900000000000170e-02
-2.367299999999999960e-02
-4.752399999999999680e-02
-2.981200000000000169e-02
1.066499999999999913e-02
3.912700000000000206e-02
3.377900000000000347e-02
-3.646899999999999795e-03
-3.916499999999999843e-02
-3.990099999999999897e-02
-1.338499999999999933e-02
1.893200000000000091e-02
5.227799999999999808e-02
8.559400000000000341e-02
