5.123400000000000176e-02
2.723400000000000126e-02
9.619700000000000126e-03
3.332900000000000185e-03
1.061100000000000064e-02
3.539500000000000285e-02
6.554500000000000604e-02
9.254500000000000226e-02
1.087899999999999978e-01
1.015599999999999975e-01
8.296000000000000596e-02
5.985599999999999948e-02
3.981099999999999917e-02
3.689900000000000124e-02
4.128699999999999731e-02
4.881400000000000322e-02
5.442999999999999922e-02
4.785400000000000070e-02
3.664800000000000002e-02
2.406399999999999859e-02
1.420399999999999961e-02
1.406899999999999991e-02
2.090600000000000097e-02
3.377999999999999753e-02
5.056900000000000284e-02
6.780999999999999528e-02
8.372799999999999687e-02
9.624699999999999922e-02
1.040599999999999997e-01
1.050900000000000029e-01
1.025999999999999968e-01
9.851999999999999647e-02
9.453300000000000591e-02
9.557200000000000417e-02
9.520399999999999696e-02
9.087599999999999845e-02
8.094300000000000106e-02
5.913600000000000106e-02
3.757300000000000223e-02
2.255100000000000160e-02
1.903499999999999984e-02
3.672399999999999970e-02
6.190099999999999769e-02
8.633799999999999808e-02
1.018899999999999945e-01
9.555500000000000105e-02
7.671100000000000141e-02
5.071200000000000013e-02
2.455699999999999897e-02
9.772799999999999890e-03
3.708299999999999878e-03
6.386799999999999769e-03
1.600400000000000086e-02
2.800100000000000158e-02
4.168000000000000177e-02
5.484900000000000192e-02
6.585599999999999787e-02
7.226399999999999491e-02
7.631999999999999895e-02
7.907200000000000339e-02
8.132399999999999352e-02
8.723999999999999810e-02
8.985600000000000531e-02
8.635600000000000220e-02
7.515199999999999658e-02
5.109699999999999659e-02
2.587599999999999970e-02
6.464000000000000128e-03
-1.066799999999999910e-03
1.200000000000000025e-02
3.722899999999999820e-02
6.856199999999999795e-02
9.851999999999999647e-02
1.173199999999999937e-01
1.240399999999999975e-01
1.176699999999999968e-01
9.996900000000000230e-02
7.403200000000000058e-02
4.682700000000000057e-02
2.453699999999999978e-02
1.209000000000000005e-02
1.537400000000000051e-02
2.885499999999999871e-02
4.808199999999999974e-02
6.759500000000000230e-02
7.854400000000000270e-02
8.325699999999999767e-02
8.184400000000000008e-02
7.559200000000000641e-02
6.966999999999999582e-02
6.083199999999999719e-02
4.934100000000000291e-02
3.594499999999999779e-02
1.857100000000000070e-02
4.717100000000000112e-03
-1.916500000000000018e-03
1.038400000000000087e-03
1.773500000000000076e-02
3.992899999999999922e-02
6.190199999999999869e-02
7.797500000000000264e-02
8.037600000000000300e-02
7.293600000000000083e-02
5.820499999999999979e-02
4.028199999999999836e-02
2.593600000000000072e-02
1.590600000000000000e-02
1.212599999999999963e-02
1.532999999999999988e-02
2.389000000000000151e-02
3.810499999999999998e-02
5.614199999999999746e-02
7.541100000000000581e-02
9.400500000000000522e-02
1.072199999999999959e-01
1.121899999999999981e-01
1.074399999999999938e-01
9.221600000000000630e-02
7.037999999999999812e-02
4.610199999999999715e-02
2.415099999999999886e-02
8.482599999999999862e-03
3.083499999999999869e-03
9.492600000000000343e-03
2.680300000000000044e-02
5.438699999999999785e-02
8.276600000000000623e-02
1.047300000000000036e-01
1.143099999999999949e-01
1.048800000000000010e-01
8.205700000000000494e-02
5.108200000000000240e-02
1.898299999999999987e-02
-5.754099999999999840e-03
-1.917100000000000054e-02
-1.839199999999999863e-02
-3.479799999999999907e-03
2.431600000000000081e-02
5.687500000000000194e-02
8.680599999999999428e-02
1.073599999999999971e-01
1.108699999999999963e-01
1.006399999999999934e-01
7.981599999999999806e-02
5.360999999999999793e-02
3.000699999999999895e-02
1.156500000000000063e-02
1.598400000000000038e-03
1.737299999999999999e-03
1.110099999999999976e-02
2.876199999999999937e-02
5.166899999999999965e-02
7.581300000000000539e-02
9.748900000000000621e-02
1.118699999999999972e-01
1.159499999999999975e-01
1.085200000000000053e-01
8.941499999999999448e-02
6.339400000000000590e-02
3.544400000000000328e-02
1.092699999999999921e-02
-5.039700000000000256e-03
-1.003800000000000005e-02
-3.312299999999999793e-03
1.362299999999999969e-02
3.844299999999999801e-02
6.439999999999999891e-02
8.569400000000000628e-02
9.753499999999999670e-02
9.525699999999999446e-02
8.179699999999999471e-02
6.052099999999999841e-02
3.636899999999999855e-02
1.532999999999999988e-02
1.305100000000000010e-03
-2.734700000000000065e-03
4.069200000000000247e-03
2.160799999999999874e-02
4.434599999999999653e-02
6.694400000000000350e-02
8.412999999999999645e-02
8.997800000000000242e-02
8.546700000000000130e-02
7.185700000000000420e-02
5.220000000000000334e-02
3.157499999999999890e-02
1.293399999999999932e-02
-2.483699999999999818e-04
-5.505799999999999930e-03
-2.297899999999999856e-03
9.643999999999999795e-03
2.846999999999999878e-02
5.096699999999999842e-02
7.454299999999999815e-02
9.266900000000000137e-02
1.011699999999999960e-01
9.773199999999999943e-02
7.986000000000000043e-02
5.455299999999999733e-02
2.778100000000000014e-02
5.816599999999999895e-03
-3.932699999999999911e-03
-2.048799999999999927e-03
1.069600000000000065e-02
3.136200000000000099e-02
5.500800000000000134e-02
7.749599999999999544e-02
9.446799999999999642e-02
1.027200000000000057e-01
1.001200000000000007e-01
8.828300000000000036e-02
6.992600000000000204e-02
4.898299999999999876e-02
2.995799999999999852e-02
1.655099999999999974e-02
1.148599999999999968e-02
1.581499999999999920e-02
2.946800000000000114e-02
4.865799999999999986e-02
6.920600000000000362e-02
8.663200000000000067e-02
9.641500000000000070e-02
9.707200000000000550e-02
8.822399999999999687e-02
7.132900000000000351e-02
4.897300000000000264e-02
2.588499999999999829e-02
6.581400000000000271e-03
-5.084100000000000251e-03
-5.978800000000000260e-03
3.289700000000000003e-03
2.091000000000000150e-02
4.350699999999999706e-02
6.693399999999999350e-02
8.652999999999999581e-02
9.848999999999999422e-02
1.004700000000000037e-01
9.106400000000000605e-02
7.351199999999999402e-02
5.164300000000000140e-02
3.011799999999999894e-02
1.401600000000000068e-02
6.077100000000000210e-03
8.007300000000000181e-03
1.963099999999999914e-02
3.912600000000000106e-02
6.261899999999999411e-02
8.559500000000000441e-02
1.035200000000000009e-01
1.130400000000000016e-01
1.115000000000000019e-01
9.865599999999999370e-02
7.649699999999999556e-02
4.678199999999999720e-02
1.830999999999999989e-02
-2.394900000000000154e-03
-1.035600000000000062e-02
-9.063799999999999516e-05
2.217600000000000127e-02
5.085900000000000143e-02
7.906699999999999839e-02
9.795900000000000440e-02
1.060600000000000015e-01
1.019599999999999951e-01
8.673500000000000654e-02
6.378100000000000436e-02
3.753000000000000086e-02
1.321499999999999932e-02
-4.324800000000000172e-03
-1.132799999999999953e-02
-6.616399999999999712e-03
8.991400000000000087e-03
3.257000000000000173e-02
6.084200000000000025e-02
8.666699999999999404e-02
1.045800000000000063e-01
1.107999999999999957e-01
1.014499999999999985e-01
8.228100000000000691e-02
5.851200000000000151e-02
3.624200000000000338e-02
2.289599999999999969e-02
1.934699999999999961e-02
2.612599999999999992e-02
4.152700000000000141e-02
6.220400000000000235e-02
8.330999999999999517e-02
1.000500000000000000e-01
1.085399999999999976e-01
1.051399999999999973e-01
9.224799999999999667e-02
7.269799999999999873e-02
5.061999999999999833e-02
3.159599999999999909e-02
1.798699999999999952e-02
1.214400000000000028e-02
1.497599999999999973e-02
2.543700000000000128e-02
4.213200000000000278e-02
6.213799999999999879e-02
8.189299999999999358e-02
9.853900000000000159e-02
1.078699999999999937e-01
1.077000000000000041e-01
9.761899999999999744e-02
7.761700000000000543e-02
5.354400000000000132e-02
3.059800000000000020e-02
1.381199999999999962e-02
7.965899999999999717e-03
1.320499999999999972e-02
2.839799999999999963e-02
5.033300000000000274e-02
7.532800000000000606e-02
9.660699999999999843e-02
1.090099999999999958e-01
1.091899999999999954e-01
9.381399999999999462e-02
6.912699999999999401e-02
4.080899999999999805e-02
1.528900000000000051e-02
2.482799999999999742e-04
-3.613100000000000166e-03
4.005400000000000106e-03
2.106399999999999939e-02
4.362599999999999811e-02
6.683899999999999564e-02
8.570200000000000040e-02
9.613599999999999923e-02
9.482799999999999563e-02
8.319200000000000206e-02
6.374599999999999711e-02
4.055000000000000271e-02
1.850500000000000062e-02
1.991199999999999828e-03
-5.542499999999999684e-03
-2.397600000000000165e-03
1.179400000000000066e-02
3.330999999999999933e-02
5.769900000000000029e-02
7.988499999999999768e-02
9.503100000000000436e-02
9.997399999999999343e-02
9.336500000000000354e-02
7.615900000000000447e-02
4.982700000000000323e-02
2.181100000000000053e-02
-1.643699999999999892e-03
-1.518899999999999938e-02
-1.301199999999999926e-02
1.353000000000000036e-03
2.442899999999999933e-02
5.110100000000000059e-02
7.381999999999999673e-02
9.064700000000000535e-02
9.892900000000000305e-02
9.756700000000000095e-02
8.819799999999999862e-02
7.099099999999999855e-02
4.852100000000000163e-02
2.431200000000000028e-02
6.857200000000000144e-04
-1.598300000000000068e-02
-2.207699999999999940e-02
-1.594200000000000131e-02
4.184799999999999805e-03
3.111099999999999977e-02
5.877500000000000085e-02
8.105300000000000005e-02
9.096200000000000119e-02
8.946099999999999886e-02
7.780900000000000316e-02
5.936999999999999916e-02
3.878399999999999903e-02
2.109600000000000017e-02
1.061499999999999944e-02
1.001100000000000080e-02
2.172999999999999932e-02
4.077399999999999775e-02
6.256599999999999662e-02
8.208799999999999430e-02
9.260300000000000475e-02
9.543500000000000594e-02
9.124100000000000266e-02
8.218000000000000305e-02
7.317099999999999993e-02
6.465200000000000113e-02
5.883900000000000241e-02
5.762199999999999961e-02
6.047299999999999898e-02
7.093399999999999705e-02
8.943199999999999761e-02
1.147799999999999931e-01
1.466600000000000126e-01
1.767700000000000105e-01
1.991300000000000014e-01
2.088000000000000134e-01
2.007099999999999995e-01
1.786899999999999877e-01
1.467799999999999938e-01
1.107699999999999935e-01
7.708900000000000474e-02
5.107899999999999940e-02
3.645799999999999735e-02
3.439500000000000196e-02
4.574000000000000288e-02
6.247899999999999981e-02
7.787900000000000378e-02
8.564099999999999491e-02
7.797800000000000564e-02
5.891799999999999815e-02
3.174199999999999938e-02
1.544199999999999913e-03
-2.367599999999999913e-02
-4.256100000000000161e-02
-5.266699999999999854e-02
-5.312399999999999761e-02
-4.578100000000000225e-02
-3.096199999999999994e-02
-1.131799999999999994e-02
9.677099999999999244e-03
2.938100000000000087e-02
4.248500000000000193e-02
4.590999999999999942e-02
3.836099999999999927e-02
1.899100000000000094e-02
-6.547800000000000321e-03
-3.298600000000000143e-02
-5.481799999999999867e-02
-6.663600000000000079e-02
-6.700499999999999512e-02
-5.595399999999999680e-02
-3.581600000000000061e-02
-9.275099999999999664e-03
1.602200000000000152e-02
3.415699999999999986e-02
4.078299999999999981e-02
3.026099999999999970e-02
9.881700000000000206e-03
-1.486700000000000001e-02
-3.789599999999999913e-02
-4.988000000000000073e-02
-5.423300000000000343e-02
-5.210299999999999654e-02
-4.585600000000000093e-02
-4.197900000000000242e-02
-3.657699999999999840e-02
-2.911000000000000046e-02
-1.886900000000000036e-02
-1.834300000000000080e-03
1.674300000000000094e-02
3.537599999999999772e-02
5.355599999999999944e-02
6.833799999999999597e-02
8.828900000000000636e-02
1.184499999999999997e-01
1.627800000000000080e-01
2.273900000000000088e-01
3.037099999999999800e-01
3.852200000000000069e-01
4.641600000000000170e-01
5.271200000000000330e-01
5.769900000000000029e-01
6.119299999999999740e-01
6.304999999999999494e-01
6.403299999999999548e-01
6.256500000000000394e-01
5.816599999999999548e-01
5.077199999999999491e-01
3.949300000000000033e-01
2.753800000000000137e-01
1.690000000000000113e-01
9.248000000000000664e-02
7.225600000000000078e-02
8.117800000000000016e-02
1.027600000000000041e-01
1.190100000000000047e-01
9.965599999999999459e-02
6.291900000000000270e-02
1.729599999999999888e-02
-2.537999999999999978e-02
-4.312300000000000161e-02
-4.472500000000000087e-02
-3.226600000000000301e-02
-1.090499999999999976e-02
8.043299999999999755e-03
2.522699999999999942e-02
3.740799999999999681e-02
4.254399999999999848e-02
4.081900000000000112e-02
3.154200000000000059e-02
1.617400000000000088e-02
-2.785300000000000102e-03
-2.227300000000000113e-02
-3.880900000000000322e-02
-4.938499999999999834e-02
-5.186400000000000038e-02
-4.627300000000000163e-02
-3.173700000000000132e-02
-9.904200000000000156e-03
1.604300000000000170e-02
4.458999999999999769e-02
6.656299999999999717e-02
7.652200000000000668e-02
7.134799999999999476e-02
4.666900000000000215e-02
1.316999999999999942e-02
-2.088900000000000132e-02
-4.712100000000000316e-02
-5.493900000000000172e-02
-4.750999999999999668e-02
-2.726699999999999957e-02
7.527599999999999960e-04
2.850400000000000156e-02
5.219300000000000328e-02
6.738800000000000345e-02
7.146900000000000475e-02
6.369199999999999862e-02
4.647099999999999842e-02
2.365599999999999994e-02
8.501700000000000272e-05
-1.923800000000000163e-02
-3.060399999999999926e-02
-3.178799999999999681e-02
-2.264499999999999846e-02
-3.932500000000000231e-03
1.870499999999999940e-02
4.001500000000000196e-02
5.507700000000000096e-02
5.891899999999999915e-02
5.249600000000000100e-02
3.751499999999999974e-02
1.750300000000000120e-02
-3.011900000000000081e-03
-1.921199999999999991e-02
-2.715300000000000005e-02
-2.456200000000000050e-02
-9.951599999999999682e-03
1.229099999999999984e-02
3.754199999999999898e-02
6.053100000000000147e-02
7.546100000000000030e-02
8.056299999999999573e-02
7.502100000000000435e-02
6.012900000000000189e-02
3.849600000000000244e-02
1.537200000000000025e-02
-4.174399999999999986e-03
-1.575100000000000111e-02
-1.554999999999999959e-02
-4.473099999999999819e-03
1.544000000000000060e-02
4.043399999999999772e-02
6.580500000000000238e-02
8.672199999999999354e-02
9.920700000000000351e-02
1.009099999999999997e-01
9.058099999999999485e-02
7.182199999999999696e-02
4.890200000000000102e-02
2.691599999999999895e-02
1.120200000000000015e-02
4.838000000000000286e-03
9.548299999999999149e-03
2.491600000000000065e-02
4.918899999999999662e-02
7.702499999999999625e-02
1.030599999999999988e-01
1.222400000000000014e-01
1.301400000000000057e-01
1.261799999999999866e-01
1.114099999999999951e-01
8.903800000000000603e-02
6.265099999999999836e-02
3.941999999999999671e-02
2.481399999999999925e-02
2.250900000000000123e-02
3.613600000000000145e-02
5.968799999999999800e-02
8.760099999999999831e-02
1.134399999999999992e-01
1.290999999999999925e-01
1.340300000000000102e-01
1.276400000000000035e-01
1.115499999999999964e-01
8.973399999999999432e-02
6.563700000000000090e-02
4.360599999999999893e-02
2.749100000000000155e-02
2.008300000000000016e-02
2.222999999999999976e-02
3.310799999999999854e-02
5.026100000000000012e-02
7.036599999999999799e-02
8.876399999999999568e-02
1.013799999999999979e-01
1.052000000000000018e-01
9.842099999999999460e-02
8.241700000000000415e-02
5.991099999999999898e-02
3.496699999999999808e-02
1.121499999999999928e-02
-5.366199999999999790e-03
-1.112800000000000074e-02
-4.612800000000000233e-03
1.577800000000000036e-02
4.200700000000000267e-02
6.746199999999999419e-02
8.572799999999999865e-02
8.918199999999999739e-02
8.046499999999999486e-02
6.201399999999999968e-02
3.833899999999999808e-02
1.602599999999999858e-02
-1.222800000000000015e-03
-9.687299999999999384e-03
-7.412799999999999771e-03
5.960700000000000200e-03
2.734100000000000072e-02
5.258000000000000174e-02
7.677000000000000490e-02
9.481599999999999751e-02
1.037399999999999989e-01
1.018499999999999961e-01
8.952799999999999647e-02
6.832599999999999785e-02
4.336099999999999677e-02
1.970500000000000029e-02
2.124599999999999926e-03
-5.032599999999999921e-03
-1.540700000000000099e-03
1.154099999999999918e-02
3.125000000000000000e-02
5.370899999999999980e-02
7.350500000000000089e-02
8.609700000000000686e-02
8.836700000000000110e-02
7.796999999999999764e-02
5.831700000000000078e-02
3.340699999999999920e-02
8.311699999999999991e-03
-1.139100000000000008e-02
-2.232100000000000056e-02
-2.231899999999999856e-02
-1.136500000000000010e-02
9.405800000000000619e-03
3.448999999999999982e-02
5.850799999999999751e-02
7.632099999999999995e-02
8.287400000000000322e-02
7.839799999999999547e-02
6.412099999999999744e-02
4.322499999999999953e-02
2.004999999999999838e-02
-3.099099999999999923e-04
-1.342999999999999923e-02
-1.633099999999999830e-02
-7.043800000000000235e-03
1.138300000000000076e-02
3.508499999999999813e-02
5.911600000000000188e-02
7.817399999999999349e-02
8.858599999999999808e-02
8.806300000000000239e-02
7.647099999999999731e-02
5.463599999999999707e-02
2.851000000000000062e-02
3.709300000000000010e-03
-1.441899999999999953e-02
-2.050599999999999992e-02
-1.506900000000000080e-02
4.615500000000000245e-04
2.264899999999999899e-02
4.668900000000000133e-02
6.764000000000000568e-02
8.106299999999999617e-02
8.399900000000000422e-02
7.463200000000000389e-02
5.584900000000000281e-02
3.148399999999999810e-02
6.489100000000000250e-03
-1.387000000000000038e-02
-2.563999999999999960e-02
-2.630700000000000052e-02
-1.550900000000000022e-02
6.004500000000000288e-03
3.257399999999999879e-02
5.863600000000000062e-02
7.873099999999999543e-02
8.747099999999999320e-02
8.455600000000000616e-02
7.084699999999999331e-02
4.933699999999999891e-02
2.415799999999999892e-02
1.068200000000000052e-03
-1.494099999999999942e-02
-2.030600000000000113e-02
-1.230299999999999970e-02
5.856600000000000000e-03
3.022100000000000133e-02
5.559599999999999959e-02
7.615500000000000047e-02
8.817800000000000638e-02
8.916300000000000614e-02
7.882000000000000117e-02
5.797100000000000170e-02
3.239299999999999818e-02
7.696999999999999849e-03
-1.068799999999999958e-02
-1.732300000000000159e-02
-1.239099999999999924e-02
2.927299999999999867e-03
2.539699999999999944e-02
5.045299999999999785e-02
7.293099999999999583e-02
8.820899999999999574e-02
9.309900000000000120e-02
8.534100000000000019e-02
6.796800000000000064e-02
4.477099999999999830e-02
2.065399999999999875e-02
1.090100000000000097e-03
-1.051099999999999951e-02
-1.186500000000000055e-02
-2.726600000000000031e-03
1.587399999999999922e-02
3.904799999999999938e-02
6.176999999999999852e-02
7.910899999999999876e-02
8.647100000000000619e-02
8.314799999999999969e-02
6.981800000000000506e-02
4.920000000000000068e-02
2.467000000000000096e-02
2.527600000000000072e-03
-1.216800000000000000e-02
-1.585200000000000151e-02
-5.283699999999999682e-03
1.503400000000000049e-02
4.051500000000000240e-02
6.552399999999999891e-02
8.326999999999999680e-02
9.168099999999999861e-02
8.923599999999999588e-02
7.654700000000000393e-02
5.607100000000000278e-02
3.205100000000000310e-02
9.297500000000000209e-03
-7.617900000000000366e-03
-1.514000000000000068e-02
-1.179700000000000019e-02
1.878700000000000075e-03
2.327500000000000055e-02
4.964999999999999969e-02
7.353200000000000014e-02
8.931899999999999562e-02
9.304800000000000570e-02
8.045499999999999874e-02
5.767800000000000010e-02
3.016999999999999890e-02
4.309799999999999916e-03
-1.165399999999999943e-02
-1.738200000000000162e-02
-1.230299999999999970e-02
2.043000000000000111e-03
2.138100000000000070e-02
4.321099999999999941e-02
6.359199999999999575e-02
7.887800000000000367e-02
8.714199999999999724e-02
8.571299999999999752e-02
7.450900000000000578e-02
5.536699999999999955e-02
2.976499999999999979e-02
5.572399999999999923e-03
-1.147699999999999936e-02
-1.704400000000000012e-02
-6.472499999999999955e-03
1.485000000000000035e-02
4.196500000000000230e-02
6.872000000000000330e-02
8.738700000000000634e-02
9.619199999999999973e-02
9.364200000000000301e-02
8.050999999999999823e-02
5.969700000000000006e-02
3.536600000000000160e-02
1.245399999999999979e-02
-4.360300000000000113e-03
-1.159299999999999914e-02
-7.510400000000000409e-03
7.395299999999999617e-03
3.044200000000000031e-02
5.883000000000000035e-02
8.459800000000000653e-02
1.017499999999999932e-01
1.059599999999999986e-01
9.276500000000000024e-02
6.824399999999999911e-02
3.802500000000000324e-02
8.864399999999999710e-03
-1.076700000000000053e-02
-1.944900000000000101e-02
-1.593200000000000172e-02
-1.349200000000000052e-03
2.076799999999999827e-02
4.643100000000000005e-02
7.071199999999999708e-02
8.903099999999999903e-02
9.772200000000000331e-02
9.560899999999999954e-02
8.327299999999999980e-02
6.321499999999999342e-02
3.868599999999999817e-02
1.546299999999999931e-02
-1.620300000000000082e-03
-8.974700000000000386e-03
-3.664800000000000176e-03
1.145499999999999990e-02
3.288399999999999657e-02
5.588900000000000118e-02
7.502599999999999547e-02
8.682700000000000140e-02
8.884000000000000230e-02
8.060199999999999310e-02
6.269600000000000173e-02
4.017600000000000338e-02
1.803099999999999842e-02
1.155599999999999900e-03
-5.498900000000000142e-03
-1.941900000000000093e-03
1.092399999999999968e-02
3.033900000000000138e-02
5.221800000000000053e-02
7.210400000000000142e-02
8.585299999999999876e-02
9.051299999999999624e-02
8.426599999999999369e-02
6.903099999999999514e-02
4.787700000000000289e-02
2.509099999999999872e-02
4.893299999999999733e-03
-7.845500000000000043e-03
-1.009900000000000034e-02
-9.372700000000000302e-04
2.020500000000000074e-02
4.651600000000000179e-02
7.203099999999999781e-02
9.094900000000000206e-02
9.680400000000000116e-02
9.100500000000000256e-02
7.528300000000000269e-02
5.336599999999999677e-02
3.055300000000000030e-02
1.121600000000000028e-02
-6.206999999999999627e-04
-2.514000000000000175e-03
6.982999999999999624e-03
2.444199999999999845e-02
4.587900000000000311e-02
6.656499999999999917e-02
8.106399999999999717e-02
8.753900000000000570e-02
8.482399999999999662e-02
7.356000000000000039e-02
5.588400000000000312e-02
3.552600000000000202e-02
1.659700000000000064e-02
2.937500000000000007e-03
-2.252800000000000115e-03
1.727100000000000076e-03
1.420199999999999935e-02
3.286300000000000332e-02
5.459599999999999870e-02
7.465499999999999914e-02
8.893099999999999616e-02
9.436700000000000643e-02
8.879700000000000093e-02
7.409799999999999720e-02
5.313799999999999774e-02
3.002600000000000061e-02
9.033100000000000504e-03
-5.241700000000000179e-03
-9.733600000000000238e-03
-3.298300000000000103e-03
1.452900000000000025e-02
3.817399999999999960e-02
6.235600000000000170e-02
8.168899999999999773e-02
9.046899999999999387e-02
8.847599999999999909e-02
7.633199999999999708e-02
5.670499999999999846e-02
3.356200000000000155e-02
1.202600000000000023e-02
-3.252000000000000116e-03
-8.867599999999999788e-03
-2.383600000000000042e-03
1.380600000000000056e-02
3.630699999999999900e-02
6.042499999999999954e-02
8.115500000000000491e-02
9.401099999999999735e-02
9.604999999999999649e-02
8.648899999999999644e-02
6.507499999999999396e-02
3.844100000000000295e-02
1.249899999999999969e-02
-7.026000000000000127e-03
-1.359699999999999971e-02
-8.831200000000000855e-03
5.576700000000000407e-03
2.608399999999999955e-02
4.681600000000000344e-02
6.523900000000000532e-02
7.808299999999999963e-02
8.319300000000000306e-02
8.058500000000000385e-02
6.991899999999999504e-02
5.310100000000000237e-02
3.330000000000000321e-02
1.272900000000000073e-02
-1.905000000000000009e-03
-6.586400000000000067e-03
7.279199999999999560e-04
2.233999999999999875e-02
5.058399999999999702e-02
7.902800000000000102e-02
1.010800000000000032e-01
1.091700000000000031e-01
1.041699999999999987e-01
8.734400000000000497e-02
6.233899999999999858e-02
3.444500000000000339e-02
9.287399999999999475e-03
-8.011400000000000118e-03
-1.396299999999999972e-02
-5.990900000000000392e-03
1.218699999999999992e-02
3.621800000000000019e-02
6.063799999999999746e-02
7.922600000000000475e-02
8.899200000000000166e-02
8.798100000000000365e-02
7.645899999999999919e-02
5.582600000000000062e-02
3.178600000000000175e-02
9.740300000000000347e-03
-5.361799999999999899e-03
-8.411899999999999933e-03
-8.476000000000000027e-04
1.538499999999999937e-02
3.664499999999999702e-02
5.754599999999999993e-02
7.494000000000000661e-02
8.555100000000000204e-02
8.742400000000000171e-02
8.035200000000000675e-02
6.556399999999999728e-02
4.586699999999999805e-02
2.506099999999999994e-02
6.373000000000000193e-03
-5.102800000000000218e-03
-6.448800000000000192e-03
3.263999999999999974e-03
2.480999999999999872e-02
5.127000000000000307e-02
7.672700000000000353e-02
9.541600000000000081e-02
1.008499999999999952e-01
9.449599999999999667e-02
7.809000000000000663e-02
5.532399999999999818e-02
3.170800000000000007e-02
1.118800000000000003e-02
-2.292999999999999899e-03
-6.210199999999999922e-03
5.391299999999999695e-04
1.592100000000000112e-02
3.669300000000000339e-02
5.859999999999999931e-02
7.708199999999999774e-02
8.852400000000000546e-02
9.052899999999999836e-02
8.251300000000000301e-02
6.508400000000000296e-02
4.257099999999999773e-02
1.959199999999999831e-02
9.006500000000000183e-04
-9.278200000000000336e-03
-9.046900000000000081e-03
1.747000000000000072e-03
2.113500000000000101e-02
4.674099999999999783e-02
7.151000000000000412e-02
8.981200000000000294e-02
9.731700000000000073e-02
8.959200000000000497e-02
7.115900000000000003e-02
4.641399999999999693e-02
2.101000000000000090e-02
1.918699999999999963e-03
-8.481400000000000050e-03
-8.329899999999999458e-03
2.066300000000000081e-03
2.079900000000000151e-02
4.322499999999999953e-02
6.442399999999999516e-02
7.977499999999999869e-02
8.496099999999999486e-02
8.005600000000000216e-02
6.624599999999999933e-02
4.653000000000000191e-02
2.487199999999999828e-02
6.214500000000000406e-03
-5.251300000000000412e-03
-6.733699999999999582e-03
3.643599999999999877e-03
2.276399999999999951e-02
4.680100000000000232e-02
7.091400000000000481e-02
8.988000000000000156e-02
1.002900000000000041e-01
9.999299999999999855e-02
8.893500000000000016e-02
6.801200000000000301e-02
4.284600000000000214e-02
1.877900000000000055e-02
8.924500000000000358e-04
-5.742299999999999661e-03
-1.537299999999999908e-03
1.220700000000000084e-02
3.229699999999999932e-02
5.424099999999999755e-02
7.342600000000000515e-02
8.569899999999999740e-02
8.829399999999999749e-02
7.957599999999999396e-02
6.216599999999999904e-02
3.964100000000000262e-02
1.664300000000000154e-02
-2.149900000000000162e-03
-1.259799999999999982e-02
-1.225000000000000047e-02
-8.113900000000000496e-04
2.140999999999999848e-02
4.780199999999999727e-02
7.248599999999999488e-02
8.992300000000000293e-02
9.410399999999999321e-02
8.666500000000000592e-02
6.961100000000000620e-02
4.684300000000000269e-02
2.400000000000000050e-02
4.947000000000000008e-03
-6.539599999999999580e-03
-8.188100000000000239e-03
6.966000000000000187e-04
1.796599999999999933e-02
4.017799999999999844e-02
6.292499999999999483e-02
8.182000000000000384e-02
9.280700000000000061e-02
9.345100000000000628e-02
8.331800000000000317e-02
6.274899999999999922e-02
3.753100000000000186e-02
1.307600000000000082e-02
-5.335699999999999645e-03
-1.232300000000000062e-02
-8.061300000000000410e-03
6.381999999999999652e-03
2.795299999999999868e-02
5.217100000000000209e-02
7.426399999999999668e-02
8.979099999999999582e-02
9.559399999999999842e-02
8.964900000000000646e-02
7.409899999999999820e-02
5.219700000000000034e-02
2.843499999999999847e-02
7.569199999999999887e-03
-5.968700000000000394e-03
-9.237900000000000278e-03
-1.322999999999999957e-03
1.780999999999999944e-02
4.258699999999999986e-02
6.761100000000000443e-02
8.742900000000000671e-02
9.639300000000000646e-02
9.419800000000000395e-02
8.149299999999999600e-02
6.101100000000000273e-02
3.675799999999999901e-02
1.404099999999999966e-02
-2.367399999999999973e-03
-8.974199999999999885e-03
-3.273299999999999821e-03
1.227400000000000019e-02
3.420299999999999729e-02
5.773199999999999860e-02
7.787800000000000278e-02
8.999200000000000255e-02
9.114200000000000079e-02
8.066500000000000059e-02
5.827299999999999841e-02
3.131400000000000156e-02
6.105700000000000363e-03
-1.138199999999999976e-02
-1.435099999999999917e-02
-5.174800000000000233e-03
1.375099999999999933e-02
3.808899999999999786e-02
6.129099999999999826e-02
8.022300000000000264e-02
9.139899999999999414e-02
9.286400000000000210e-02
8.458200000000000440e-02
6.811399999999999400e-02
4.663899999999999990e-02
2.428400000000000003e-02
4.800500000000000080e-03
-7.136899999999999841e-03
-8.816600000000000825e-03
4.766899999999999913e-04
2.088599999999999832e-02
4.626099999999999657e-02
7.099800000000000555e-02
8.958900000000000197e-02
9.629100000000000159e-02
9.143900000000000639e-02
7.619800000000000184e-02
5.380599999999999966e-02
2.876199999999999937e-02
6.398599999999999947e-03
-8.598899999999999599e-03
-1.302099999999999959e-02
-4.554199999999999568e-03
1.351600000000000024e-02
3.721399999999999708e-02
6.146999999999999686e-02
8.057499999999999385e-02
9.134000000000000452e-02
9.164200000000000124e-02
8.144400000000000250e-02
6.190899999999999875e-02
3.822099999999999803e-02
1.552500000000000061e-02
-1.249700000000000073e-03
-7.346199999999999779e-03
-2.775600000000000029e-03
1.137400000000000043e-02
3.210500000000000159e-02
5.528000000000000275e-02
7.590199999999999725e-02
8.959000000000000297e-02
9.331799999999999817e-02
8.491100000000000037e-02
6.735299999999999621e-02
4.431999999999999829e-02
2.056099999999999942e-02
1.444699999999999934e-03
-9.841000000000000789e-03
-1.110000000000000049e-02
-2.069800000000000112e-03
1.598799999999999874e-02
3.890699999999999714e-02
6.199400000000000049e-02
8.046699999999999686e-02
9.028200000000000114e-02
8.931699999999999362e-02
7.741299999999999570e-02
5.659899999999999654e-02
2.913599999999999871e-02
2.707000000000000205e-03
-1.669700000000000004e-02
-2.447799999999999976e-02
-1.588699999999999835e-02
4.133699999999999701e-03
3.082800000000000124e-02
5.811600000000000099e-02
7.838900000000000035e-02
8.935999999999999499e-02
8.914700000000000402e-02
7.814200000000000312e-02
5.849499999999999839e-02
3.492800000000000071e-02
1.252900000000000021e-02
-3.916900000000000069e-03
-1.004000000000000031e-02
-5.664999999999999897e-03
8.124599999999999184e-03
2.836400000000000032e-02
5.107300000000000034e-02
7.115399999999999503e-02
8.425299999999999456e-02
8.740499999999999658e-02
7.844299999999999884e-02
6.061199999999999921e-02
3.775400000000000283e-02
1.473000000000000004e-02
-3.066900000000000008e-03
-1.252299999999999941e-02
-1.162700000000000018e-02
-4.010899999999999969e-04
1.983700000000000047e-02
4.416599999999999693e-02
6.753499999999999781e-02
8.504599999999999660e-02
9.217999999999999805e-02
8.830100000000000449e-02
7.415900000000000269e-02
5.252400000000000124e-02
2.698700000000000057e-02
3.597799999999999956e-03
-1.261499999999999948e-02
-1.802099999999999883e-02
-9.600499999999999659e-03
9.086399999999999685e-03
3.396699999999999720e-02
5.975699999999999762e-02
8.025100000000000289e-02
9.229199999999999904e-02
9.359000000000000652e-02
8.395299999999999985e-02
6.476999999999999424e-02
4.061700000000000033e-02
1.651400000000000090e-02
-2.519500000000000038e-03
-1.210600000000000044e-02
-1.059500000000000025e-02
1.847700000000000080e-03
2.286300000000000138e-02
4.959999999999999826e-02
7.488499999999999324e-02
9.300600000000000533e-02
9.969200000000000284e-02
9.062499999999999722e-02
7.069699999999999596e-02
4.462499999999999800e-02
1.832200000000000148e-02
-7.759499999999999688e-04
-1.076900000000000079e-02
-1.003399999999999952e-02
9.004300000000000238e-04
1.951699999999999963e-02
4.194099999999999911e-02
6.357500000000000651e-02
8.003699999999999704e-02
8.759999999999999731e-02
8.526599999999999457e-02
7.356200000000000239e-02
5.484399999999999692e-02
3.214999999999999802e-02
1.100800000000000042e-02
-4.018800000000000323e-03
-9.597700000000000675e-03
-2.985999999999999939e-03
1.274800000000000065e-02
3.399800000000000044e-02
5.602599999999999941e-02
7.354499999999999926e-02
8.317599999999999993e-02
8.271000000000000574e-02
7.199500000000000344e-02
5.176100000000000145e-02
2.771200000000000052e-02
5.175500000000000413e-03
-1.080599999999999963e-02
-1.511799999999999949e-02
-8.547900000000000637e-03
7.338400000000000131e-03
2.910099999999999840e-02
5.204700000000000298e-02
7.151499999999999524e-02
8.340200000000000391e-02
8.509999999999999509e-02
7.488599999999999424e-02
5.616600000000000065e-02
3.288800000000000057e-02
9.856900000000000037e-03
-7.382399999999999900e-03
-1.654699999999999921e-02
-1.605900000000000036e-02
-6.162800000000000396e-03
1.108199999999999984e-02
3.243700000000000055e-02
5.381199999999999872e-02
7.107600000000000029e-02
8.114499999999999491e-02
8.145199999999999663e-02
7.157399999999999873e-02
5.309799999999999937e-02
2.775199999999999889e-02
2.818000000000000192e-03
-1.597499999999999962e-02
-2.404799999999999993e-02
-1.693300000000000013e-02
1.699299999999999942e-03
2.785299999999999929e-02
5.599599999999999717e-02
7.964999999999999858e-02
9.467799999999999827e-02
9.808699999999999364e-02
8.924100000000000088e-02
6.837999999999999634e-02
4.208300000000000235e-02
1.641499999999999904e-02
-2.799999999999999972e-03
-8.984999999999999931e-03
-3.825400000000000068e-03
1.087300000000000072e-02
3.143800000000000067e-02
5.190299999999999775e-02
6.965000000000000357e-02
8.141800000000000426e-02
8.515999999999999959e-02
8.083700000000000607e-02
6.870999999999999330e-02
5.099900000000000266e-02
3.103900000000000062e-02
1.142800000000000066e-02
-2.065599999999999901e-03
-6.030500000000000270e-03
1.044199999999999903e-03
2.076899999999999927e-02
4.610999999999999821e-02
7.116500000000000603e-02
9.004099999999999604e-02
9.605099999999999749e-02
9.042699999999999350e-02
7.472099999999999576e-02
5.257699999999999874e-02
2.901600000000000013e-02
9.057799999999999532e-03
-2.920700000000000032e-03
-4.219699999999999840e-03
7.267700000000000202e-03
2.699800000000000116e-02
5.036700000000000205e-02
7.208599999999999730e-02
8.551100000000000367e-02
9.014400000000000190e-02
8.543900000000000106e-02
7.258900000000000075e-02
5.528000000000000275e-02
3.522999999999999743e-02
1.567400000000000043e-02
-2.102100000000000084e-04
-1.112499999999999947e-02
-1.329499999999999953e-02
-5.794800000000000124e-03
1.042900000000000077e-02
3.505599999999999689e-02
5.987399999999999667e-02
7.890199999999999991e-02
8.727899999999999547e-02
7.954999999999999571e-02
6.064200000000000146e-02
3.504499999999999976e-02
8.657599999999999671e-03
-1.128900000000000042e-02
-2.198599999999999860e-02
-2.132699999999999874e-02
-9.579799999999999427e-03
1.165000000000000063e-02
3.645799999999999735e-02
5.912400000000000294e-02
7.438599999999999379e-02
7.688699999999999701e-02
6.800499999999999601e-02
4.978599999999999692e-02
2.615599999999999870e-02
2.633400000000000150e-03
-1.666400000000000173e-02
-2.786100000000000035e-02
-2.862699999999999967e-02
-1.828099999999999864e-02
9.228300000000000261e-04
2.534399999999999847e-02
5.028699999999999837e-02
7.118399999999999728e-02
8.339900000000000091e-02
8.415999999999999870e-02
7.287200000000000621e-02
4.973500000000000143e-02
2.119700000000000056e-02
-6.713700000000000397e-03
-2.804299999999999848e-02
-3.667999999999999733e-02
-3.257800000000000279e-02
-1.669299999999999951e-02
7.780300000000000410e-03
3.601300000000000334e-02
6.267699999999999660e-02
8.272500000000000686e-02
9.243200000000000027e-02
8.912399999999999489e-02
7.503600000000000547e-02
5.349899999999999795e-02
2.923800000000000010e-02
7.756200000000000420e-03
-6.779499999999999936e-03
-1.119700000000000036e-02
-4.227599999999999761e-03
1.367499999999999966e-02
3.900200000000000194e-02
6.726500000000000534e-02
9.344700000000000228e-02
1.135300000000000059e-01
1.234399999999999942e-01
1.217199999999999949e-01
1.094799999999999940e-01
8.739800000000000346e-02
6.534600000000000131e-02
5.060100000000000015e-02
4.891199999999999715e-02
6.681399999999999839e-02
9.724700000000000011e-02
1.338399999999999868e-01
1.685599999999999876e-01
1.915300000000000058e-01
1.996100000000000096e-01
1.904200000000000059e-01
1.647399999999999975e-01
1.252699999999999925e-01
7.978000000000000369e-02
3.594300000000000272e-02
8.097700000000000210e-04
-1.822700000000000015e-02
-2.283299999999999913e-02
-1.520099999999999923e-02
2.601099999999999745e-04
1.655099999999999974e-02
3.042900000000000119e-02
3.805399999999999755e-02
3.708000000000000185e-02
2.748799999999999855e-02
9.863000000000000239e-03
-1.304600000000000030e-02
-3.729299999999999976e-02
-5.968299999999999994e-02
-7.414800000000000557e-02
-7.720299999999999385e-02
-6.757100000000000606e-02
-4.411299999999999943e-02
-1.466300000000000069e-02
1.402199999999999974e-02
3.525899999999999868e-02
4.174400000000000333e-02
3.446799999999999864e-02
1.508499999999999945e-02
-1.230200000000000043e-02
-4.212500000000000272e-02
-6.810499999999999887e-02
-8.484099999999999975e-02
-8.883299999999999530e-02
-7.694700000000000151e-02
-5.473999999999999699e-02
-2.755799999999999916e-02
-1.565800000000000004e-03
1.448200000000000008e-02
2.152499999999999900e-02
1.920200000000000032e-02
8.720000000000000320e-03
-4.780600000000000301e-03
-2.299100000000000102e-02
-4.415600000000000080e-02
-6.586599999999999400e-02
-8.887799999999999867e-02
-1.038599999999999940e-01
-1.060200000000000031e-01
-9.249000000000000277e-02
-5.839500000000000246e-02
-1.390500000000000069e-02
3.401200000000000057e-02
7.867200000000000581e-02
1.109699999999999992e-01
1.363999999999999935e-01
1.587000000000000077e-01
1.832499999999999962e-01
2.184599999999999875e-01
2.636700000000000155e-01
3.191700000000000093e-01
3.830000000000000071e-01
4.475999999999999979e-01
5.125399999999999956e-01
5.722000000000000419e-01
6.195500000000000451e-01
6.548399999999999777e-01
6.582900000000000418e-01
6.215899999999999759e-01
5.427899999999999947e-01
4.135300000000000087e-01
2.700799999999999867e-01
1.374499999999999889e-01
3.792100000000000332e-02
3.172499999999999973e-03
8.752499999999999863e-03
3.903899999999999731e-02
7.450900000000000578e-02
8.234800000000000453e-02
7.374999999999999611e-02
5.101900000000000185e-02
2.077199999999999880e-02
3.416199999999999988e-04
-1.691499999999999948e-02
-2.982800000000000035e-02
-3.831899999999999890e-02
-4.761499999999999760e-02
-5.105099999999999916e-02
-4.735899999999999832e-02
-3.647399999999999948e-02
-1.707799999999999943e-02
3.495100000000000116e-03
2.013900000000000065e-02
2.835400000000000073e-02
2.347499999999999934e-02
8.068199999999999331e-03
-1.486700000000000001e-02
-4.059800000000000214e-02
-6.434099999999999542e-02
-7.977800000000000169e-02
-8.281600000000000072e-02
-7.188500000000000445e-02
-4.517800000000000288e-02
-1.210600000000000044e-02
1.965799999999999839e-02
4.272499999999999909e-02
4.796799999999999675e-02
3.912899999999999712e-02
1.924100000000000116e-02
-6.461299999999999683e-03
-2.958300000000000166e-02
-4.785400000000000070e-02
-5.790000000000000008e-02
-5.798299999999999982e-02
-4.904800000000000132e-02
-3.152499999999999747e-02
-8.228499999999999703e-03
1.694800000000000126e-02
4.078999999999999987e-02
5.745000000000000107e-02
6.341199999999999615e-02
5.715100000000000041e-02
3.764800000000000091e-02
1.115700000000000025e-02
-1.649499999999999925e-02
-3.923399999999999804e-02
-5.084299999999999931e-02
-5.022700000000000081e-02
-3.759300000000000141e-02
-1.558299999999999963e-02
1.238599999999999944e-02
3.898999999999999688e-02
5.829499999999999960e-02
6.596000000000000474e-02
5.729299999999999671e-02
3.814499999999999835e-02
1.368199999999999972e-02
-9.950000000000000511e-03
-2.439099999999999949e-02
-2.987799999999999831e-02
-2.597999999999999962e-02
-1.416700000000000077e-02
1.385600000000000069e-03
1.907999999999999974e-02
3.578599999999999837e-02
4.865400000000000280e-02
5.619600000000000289e-02
5.634600000000000025e-02
4.901699999999999807e-02
3.554800000000000321e-02
1.733799999999999925e-02
-3.392199999999999946e-04
-1.339399999999999966e-02
-1.862199999999999966e-02
-1.300600000000000020e-02
8.163600000000000240e-04
1.991700000000000068e-02
4.028700000000000336e-02
5.718199999999999672e-02
6.779499999999999416e-02
7.006500000000000228e-02
6.361400000000000388e-02
4.920900000000000274e-02
3.078699999999999840e-02
1.255799999999999972e-02
-1.211899999999999913e-03
-6.843400000000000351e-03
-2.771399999999999818e-03
1.090499999999999976e-02
3.212899999999999784e-02
5.868099999999999705e-02
8.362999999999999601e-02
1.016699999999999965e-01
1.088699999999999946e-01
1.009599999999999942e-01
8.320099999999999718e-02
6.029999999999999943e-02
3.796000000000000069e-02
2.351500000000000118e-02
1.784300000000000122e-02
2.186000000000000096e-02
3.449200000000000182e-02
5.246800000000000075e-02
7.278400000000000147e-02
9.145200000000000551e-02
1.047600000000000059e-01
1.102199999999999985e-01
1.061200000000000060e-01
9.279199999999999948e-02
7.234300000000000452e-02
4.695699999999999874e-02
2.320300000000000140e-02
6.068999999999999742e-03
-7.622399999999999662e-04
6.218200000000000116e-03
2.282000000000000001e-02
4.477699999999999736e-02
6.668699999999999628e-02
8.223199999999999954e-02
8.869299999999999407e-02
8.422100000000000419e-02
6.917099999999999638e-02
4.520600000000000313e-02
1.780800000000000091e-02
-7.600899999999999844e-03
-2.594799999999999884e-02
-3.231200000000000044e-02
-2.710100000000000009e-02
-1.171200000000000019e-02
1.055700000000000041e-02
3.492499999999999771e-02
5.691899999999999737e-02
7.230499999999999428e-02
7.814000000000000112e-02
7.287200000000000621e-02
5.817900000000000155e-02
3.710000000000000103e-02
1.391700000000000055e-02
-7.091700000000000260e-03
-2.099099999999999924e-02
-2.460999999999999993e-02
-1.681500000000000009e-02
2.827599999999999992e-03
2.830600000000000130e-02
5.395500000000000296e-02
7.402300000000000546e-02
8.255800000000000638e-02
7.917699999999999738e-02
6.455299999999999927e-02
4.160099999999999909e-02
1.430099999999999948e-02
-1.113100000000000027e-02
-2.942600000000000077e-02
-3.680900000000000144e-02
-2.985000000000000153e-02
-1.283600000000000019e-02
9.825300000000000353e-03
3.265799999999999953e-02
4.888900000000000190e-02
5.669400000000000134e-02
5.461300000000000182e-02
4.320299999999999835e-02
2.471800000000000039e-02
3.097799999999999946e-03
-1.725600000000000050e-02
-3.222599999999999770e-02
-3.805800000000000155e-02
-3.453200000000000019e-02
-2.248999999999999957e-02
-4.359199999999999707e-03
1.626999999999999974e-02
3.558700000000000058e-02
4.998500000000000165e-02
5.682399999999999951e-02
5.458199999999999857e-02
4.431700000000000222e-02
2.828999999999999918e-02
9.884000000000000424e-03
-7.613299999999999929e-03
-1.969500000000000070e-02
-2.346799999999999928e-02
-1.775399999999999895e-02
-1.674700000000000103e-03
1.922899999999999957e-02
4.001699999999999702e-02
5.572599999999999776e-02
6.096499999999999836e-02
5.618100000000000177e-02
4.241400000000000031e-02
2.257599999999999885e-02
7.599899999999999928e-04
-1.832900000000000154e-02
-3.053300000000000111e-02
-3.304900000000000199e-02
-2.397300000000000125e-02
-6.288199999999999866e-03
1.629299999999999846e-02
3.903600000000000125e-02
5.692699999999999844e-02
6.640000000000000069e-02
6.529100000000000181e-02
5.353499999999999925e-02
3.189000000000000168e-02
6.399300000000000127e-03
-1.736899999999999902e-02
-3.417300000000000199e-02
-3.863199999999999967e-02
-3.169899999999999801e-02
-1.504300000000000082e-02
7.758300000000000092e-03
3.162600000000000133e-02
5.215499999999999997e-02
6.524299999999999544e-02
6.823099999999999998e-02
5.977899999999999880e-02
4.228900000000000020e-02
1.928200000000000053e-02
-4.654900000000000010e-03
-2.475000000000000117e-02
-3.696300000000000280e-02
-3.871700000000000141e-02
-2.944499999999999895e-02
-9.545500000000000165e-03
1.559900000000000002e-02
4.073600000000000138e-02
6.064200000000000146e-02
7.002999999999999503e-02
6.859500000000000319e-02
5.702100000000000224e-02
3.798200000000000187e-02
1.532999999999999988e-02
-5.830700000000000292e-03
-2.095500000000000140e-02
-2.674899999999999847e-02
-2.065399999999999875e-02
-5.417299999999999893e-03
1.554600000000000079e-02
3.769600000000000034e-02
5.579100000000000031e-02
6.672400000000000553e-02
6.829599999999999560e-02
6.018699999999999745e-02
4.326499999999999790e-02
2.198699999999999960e-02
9.698800000000000043e-04
-1.521199999999999983e-02
-2.221199999999999911e-02
-1.935800000000000021e-02
-7.183700000000000328e-03
1.190599999999999992e-02
3.456999999999999656e-02
5.557299999999999740e-02
7.037799999999999612e-02
7.562900000000000178e-02
6.870600000000000318e-02
5.221100000000000046e-02
2.952300000000000063e-02
5.268600000000000019e-03
-1.544899999999999919e-02
-2.859499999999999889e-02
-3.141399999999999748e-02
-2.318699999999999928e-02
-4.218200000000000074e-03
2.014300000000000118e-02
4.459199999999999969e-02
6.379200000000000148e-02
7.247099999999999376e-02
6.995200000000000029e-02
5.679300000000000320e-02
3.569499999999999756e-02
1.028600000000000000e-02
-1.327099999999999981e-02
-2.979899999999999910e-02
-3.554299999999999821e-02
-2.720399999999999902e-02
-8.680699999999999528e-03
1.579300000000000148e-02
4.080199999999999799e-02
5.992200000000000304e-02
7.036299999999999499e-02
7.011000000000000565e-02
5.927799999999999736e-02
3.941200000000000259e-02
1.540799999999999982e-02
-7.677899999999999656e-03
-2.502400000000000110e-02
-3.197099999999999942e-02
-2.850400000000000156e-02
-1.563200000000000006e-02
3.808600000000000093e-03
2.570700000000000068e-02
4.562399999999999789e-02
5.947000000000000203e-02
6.436300000000000354e-02
5.852199999999999763e-02
4.392499999999999877e-02
2.362200000000000064e-02
1.815299999999999943e-03
-1.711400000000000074e-02
-2.893099999999999838e-02
-3.088000000000000120e-02
-2.213400000000000090e-02
-2.609400000000000001e-03
2.215599999999999861e-02
4.691000000000000031e-02
6.638700000000000156e-02
7.497299999999999798e-02
7.274200000000000110e-02
6.047000000000000292e-02
4.086900000000000255e-02
1.826699999999999852e-02
-3.136400000000000125e-03
-1.912900000000000017e-02
-2.655599999999999974e-02
-2.373000000000000109e-02
-1.139399999999999961e-02
8.030799999999999397e-03
3.068399999999999947e-02
5.295199999999999907e-02
6.880799999999999417e-02
7.435700000000000642e-02
6.777500000000000191e-02
4.742400000000000088e-02
2.038099999999999981e-02
-7.112099999999999672e-03
-2.864099999999999979e-02
-3.713700000000000334e-02
-3.285699999999999732e-02
-1.678400000000000031e-02
7.698700000000000161e-03
3.573699999999999793e-02
6.128800000000000220e-02
7.898700000000000165e-02
8.507399999999999685e-02
7.639400000000000357e-02
5.711700000000000110e-02
3.176500000000000157e-02
5.996399999999999821e-03
-1.330899999999999965e-02
-2.384800000000000114e-02
-2.383300000000000002e-02
-1.357399999999999926e-02
4.670599999999999578e-03
2.709599999999999856e-02
4.912799999999999806e-02
6.628599999999999770e-02
7.493400000000000061e-02
7.335300000000000153e-02
6.168799999999999978e-02
4.207999999999999935e-02
1.696999999999999897e-02
-6.829499999999999633e-03
-2.400499999999999856e-02
-3.059500000000000067e-02
-2.249599999999999864e-02
-4.458000000000000157e-03
1.906800000000000161e-02
4.257299999999999973e-02
5.890800000000000203e-02
6.692499999999999838e-02
6.542599999999999805e-02
5.511300000000000227e-02
3.884200000000000153e-02
1.933299999999999949e-02
3.735999999999999738e-04
-1.437100000000000009e-02
-2.236600000000000046e-02
-2.148200000000000109e-02
-1.160500000000000073e-02
5.609199999999999950e-03
2.835800000000000126e-02
5.029100000000000237e-02
6.646399999999999531e-02
7.304599999999999982e-02
6.633200000000000207e-02
4.991299999999999903e-02
2.757000000000000076e-02
4.330500000000000148e-03
-1.400799999999999962e-02
-2.411299999999999902e-02
-2.370299999999999838e-02
-1.264299999999999972e-02
8.170200000000000726e-03
3.299300000000000149e-02
5.634800000000000225e-02
7.302999999999999770e-02
7.768300000000000205e-02
7.110800000000000454e-02
5.483299999999999980e-02
3.229400000000000326e-02
8.417799999999999588e-03
-1.240300000000000083e-02
-2.605000000000000024e-02
-2.978899999999999951e-02
-2.223400000000000029e-02
-5.518900000000000194e-03
1.701000000000000081e-02
4.087600000000000261e-02
6.145500000000000268e-02
7.442400000000000404e-02
7.699699999999999600e-02
6.839900000000000146e-02
4.869899999999999923e-02
2.349800000000000152e-02
-1.829099999999999953e-03
-2.189199999999999827e-02
-3.119999999999999857e-02
-2.939399999999999999e-02
-1.713200000000000139e-02
2.854000000000000200e-03
2.662700000000000136e-02
4.883699999999999847e-02
6.473800000000000388e-02
7.088300000000000156e-02
6.452399999999999802e-02
4.866000000000000186e-02
2.692100000000000048e-02
4.106399999999999634e-03
-1.422900000000000033e-02
-2.488999999999999893e-02
-2.561400000000000135e-02
-1.611200000000000132e-02
2.502199999999999997e-03
2.575699999999999865e-02
4.883200000000000041e-02
6.689900000000000013e-02
7.560100000000000153e-02
7.359100000000000363e-02
6.112200000000000272e-02
4.053999999999999965e-02
1.473900000000000036e-02
-9.558099999999999929e-03
-2.693500000000000061e-02
-3.334100000000000258e-02
-2.487299999999999928e-02
-5.820399999999999879e-03
1.946600000000000066e-02
4.542000000000000204e-02
6.516800000000000370e-02
7.635799999999999532e-02
7.709900000000000087e-02
6.758699999999999430e-02
4.979999999999999705e-02
2.778299999999999867e-02
6.174500000000000301e-03
-1.051500000000000004e-02
-1.852699999999999833e-02
-1.649899999999999978e-02
-4.817700000000000281e-03
1.414400000000000032e-02
3.766900000000000109e-02
5.909799999999999776e-02
7.327300000000000479e-02
7.649300000000000543e-02
6.505199999999999871e-02
4.396599999999999814e-02
1.800300000000000164e-02
-7.060799999999999889e-03
-2.410299999999999943e-02
-3.158199999999999896e-02
-2.828999999999999918e-02
-1.513399999999999988e-02
4.973299999999999943e-03
2.815000000000000141e-02
4.981100000000000111e-02
6.566900000000000515e-02
7.236099999999999477e-02
6.872300000000000630e-02
5.536399999999999655e-02
3.477999999999999842e-02
9.975400000000000586e-03
-1.286699999999999997e-02
-2.878800000000000109e-02
-3.415800000000000086e-02
-2.582100000000000020e-02
-7.386499999999999837e-03
1.713500000000000092e-02
4.252800000000000330e-02
6.268100000000000060e-02
7.445999999999999841e-02
7.559799999999999853e-02
6.591099999999999737e-02
4.663699999999999790e-02
2.252399999999999888e-02
-1.413500000000000043e-03
-2.023000000000000145e-02
-2.921599999999999892e-02
-2.762500000000000025e-02
-1.596399999999999902e-02
3.295600000000000092e-03
2.649999999999999925e-02
4.854599999999999888e-02
6.480299999999999949e-02
7.177200000000000246e-02
6.700699999999999712e-02
5.231100000000000333e-02
3.070099999999999912e-02
6.614000000000000087e-03
-1.547499999999999917e-02
-3.016900000000000137e-02
-3.398199999999999832e-02
-2.563000000000000000e-02
-4.145099999999999653e-03
2.322499999999999912e-02
5.014600000000000307e-02
7.036499999999999699e-02
7.673000000000000653e-02
7.076399999999999357e-02
5.417799999999999699e-02
3.080600000000000005e-02
6.490199999999999789e-03
-1.471800000000000018e-02
-2.868499999999999869e-02
-3.274699999999999833e-02
-2.572299999999999934e-02
-9.723199999999999552e-03
1.188200000000000020e-02
3.466199999999999837e-02
5.397400000000000114e-02
6.591800000000000437e-02
6.799700000000000188e-02
5.966500000000000276e-02
4.134100000000000275e-02
1.820499999999999896e-02
-4.662399999999999704e-03
-2.220799999999999857e-02
-2.952799999999999869e-02
-2.604499999999999871e-02
-1.241500000000000069e-02
8.660899999999999155e-03
3.361399999999999805e-02
5.650700000000000167e-02
7.238600000000000589e-02
7.769900000000000417e-02
6.933499999999999386e-02
5.117900000000000227e-02
2.740099999999999827e-02
3.268599999999999978e-03
-1.510500000000000037e-02
-2.496599999999999861e-02
-2.444400000000000045e-02
-1.379000000000000017e-02
5.588100000000000359e-03
2.838900000000000104e-02
4.951200000000000045e-02
6.425999999999999768e-02
6.774399999999999866e-02
6.129099999999999826e-02
4.666900000000000215e-02
2.723899999999999932e-02
8.018000000000000821e-03
-8.091700000000000281e-03
-1.803099999999999842e-02
-1.994100000000000039e-02
-1.356699999999999920e-02
3.680899999999999943e-05
1.835799999999999932e-02
3.795300000000000062e-02
5.550999999999999684e-02
6.688099999999999601e-02
6.942500000000000060e-02
6.212299999999999767e-02
4.484400000000000192e-02
2.189500000000000127e-02
-2.226099999999999954e-03
-2.270300000000000096e-02
-3.523099999999999843e-02
-3.731600000000000195e-02
-2.834100000000000161e-02
-9.908099999999999546e-03
1.625499999999999862e-02
4.228900000000000020e-02
6.210600000000000148e-02
7.092299999999999993e-02
6.345199999999999452e-02
4.501200000000000340e-02
2.039699999999999847e-02
-4.328700000000000429e-03
-2.133799999999999933e-02
-2.906999999999999862e-02
-2.608100000000000002e-02
-1.314300000000000017e-02
6.897900000000000212e-03
3.000099999999999989e-02
5.140999999999999737e-02
6.667199999999999516e-02
7.214900000000000480e-02
6.696199999999999375e-02
5.191699999999999787e-02
2.975500000000000020e-02
3.875400000000000199e-03
-1.960900000000000143e-02
-3.570500000000000063e-02
-4.080899999999999805e-02
-3.194099999999999717e-02
-1.260799999999999942e-02
1.313399999999999984e-02
3.998899999999999677e-02
6.192500000000000088e-02
7.534200000000000619e-02
7.773599999999999954e-02
6.877300000000000080e-02
4.925899999999999723e-02
2.468899999999999914e-02
4.410799999999999985e-04
-1.827200000000000005e-02
-2.604300000000000018e-02
-2.327299999999999855e-02
-1.107299999999999951e-02
7.593299999999999876e-03
2.823099999999999915e-02
4.689600000000000019e-02
5.974899999999999656e-02
6.415400000000000269e-02
5.861700000000000244e-02
4.496700000000000003e-02
2.608200000000000102e-02
5.871000000000000350e-03
-1.155699999999999956e-02
-2.250600000000000170e-02
-2.458199999999999968e-02
-1.715900000000000064e-02
-3.726499999999999778e-04
2.087999999999999926e-02
4.189899999999999874e-02
5.801400000000000307e-02
6.444600000000000328e-02
6.110600000000000059e-02
4.875800000000000273e-02
2.996899999999999911e-02
8.387300000000000311e-03
-1.129600000000000048e-02
-2.491900000000000018e-02
-2.950699999999999851e-02
-2.294300000000000159e-02
-7.641600000000000129e-03
1.316499999999999962e-02
3.513199999999999656e-02
5.358399999999999969e-02
6.476300000000000112e-02
6.621900000000000008e-02
5.744699999999999807e-02
3.870300000000000129e-02
1.551199999999999975e-02
-6.946299999999999870e-03
-2.362600000000000117e-02
-2.921299999999999938e-02
-2.421699999999999894e-02
-9.803600000000000855e-03
1.101399999999999949e-02
3.363300000000000317e-02
5.406799999999999801e-02
6.835299999999999709e-02
7.367500000000000437e-02
6.873200000000000143e-02
5.455700000000000133e-02
3.377600000000000047e-02
1.032300000000000058e-02
-1.225799999999999980e-02
-2.814799999999999941e-02
-3.373299999999999910e-02
-2.747700000000000142e-02
-7.870000000000000259e-03
1.774699999999999889e-02
4.315100000000000185e-02
6.217099999999999710e-02
6.770500000000000129e-02
6.131799999999999751e-02
4.476200000000000317e-02
2.190100000000000033e-02
-1.660500000000000084e-03
-2.144300000000000025e-02
-3.324499999999999678e-02
-3.450700000000000295e-02
-2.373899999999999968e-02
-4.476400000000000171e-03
1.910999999999999852e-02
4.202299999999999786e-02
5.859199999999999825e-02
6.659800000000000442e-02
6.462900000000000589e-02
5.320799999999999835e-02
3.443500000000000033e-02
1.234799999999999960e-02
-8.596700000000000522e-03
-2.416199999999999945e-02
-3.091299999999999951e-02
-2.770699999999999899e-02
-1.508299999999999919e-02
4.546500000000000194e-03
2.838200000000000098e-02
5.016500000000000126e-02
6.498500000000000110e-02
6.930400000000000449e-02
5.976800000000000168e-02
4.068000000000000088e-02
1.634899999999999895e-02
-7.878599999999999492e-03
-2.549699999999999883e-02
-3.449100000000000082e-02
-3.332000000000000239e-02
-2.244600000000000067e-02
-4.196100000000000350e-03
1.770499999999999852e-02
3.882000000000000034e-02
5.484499999999999792e-02
6.245799999999999963e-02
5.989200000000000079e-02
4.735700000000000326e-02
2.706400000000000125e-02
1.390500000000000026e-03
-2.250900000000000123e-02
-3.914900000000000324e-02
-4.446100000000000052e-02
-3.436800000000000271e-02
-1.372400000000000009e-02
1.275800000000000024e-02
3.918599999999999861e-02
5.839099999999999846e-02
6.811300000000000687e-02
6.665200000000000291e-02
5.455700000000000133e-02
3.404599999999999987e-02
9.983000000000000554e-03
-1.249699999999999943e-02
-2.861999999999999961e-02
-3.409100000000000324e-02
-2.880500000000000074e-02
-1.396000000000000019e-02
7.352000000000000028e-03
3.118699999999999944e-02
5.210700000000000054e-02
6.564399999999999402e-02
6.882900000000000129e-02
5.925699999999999718e-02
4.095399999999999735e-02
1.817200000000000065e-02
-3.965699999999999954e-03
-1.939899999999999958e-02
-2.628600000000000034e-02
-2.334999999999999923e-02
-1.125199999999999985e-02
7.537399999999999656e-03
2.939100000000000046e-02
5.000600000000000184e-02
6.526300000000000157e-02
7.204599999999999893e-02
6.868900000000000006e-02
5.546399999999999941e-02
3.456499999999999850e-02
8.473899999999999488e-03
-1.607199999999999948e-02
-3.377999999999999753e-02
-4.065799999999999970e-02
-3.297200000000000131e-02
-1.464900000000000056e-02
1.013099999999999938e-02
3.588999999999999829e-02
5.613599999999999840e-02
6.764699999999999880e-02
6.805700000000000638e-02
5.719699999999999784e-02
3.632599999999999718e-02
1.056900000000000027e-02
-1.475899999999999955e-02
-3.445700000000000152e-02
-4.342499999999999832e-02
-4.127600000000000019e-02
-2.873399999999999913e-02
-8.514499999999999499e-03
1.525699999999999973e-02
3.779300000000000020e-02
5.457399999999999751e-02
6.222199999999999953e-02
5.854800000000000282e-02
4.506399999999999989e-02
2.460800000000000140e-02
1.412999999999999977e-03
-2.018899999999999861e-02
-3.497299999999999714e-02
-3.946700000000000208e-02
-3.225999999999999701e-02
-1.245800000000000032e-02
1.359600000000000045e-02
4.009200000000000264e-02
6.111500000000000266e-02
7.020999999999999464e-02
6.760099999999999443e-02
5.419100000000000306e-02
3.306499999999999717e-02
8.825299999999999465e-03
-1.339500000000000066e-02
-2.885599999999999971e-02
-3.420600000000000029e-02
-2.707000000000000031e-02
-1.027699999999999968e-02
1.246099999999999985e-02
3.621699999999999919e-02
5.550399999999999778e-02
6.655800000000000605e-02
6.683699999999999364e-02
5.590500000000000330e-02
3.452600000000000113e-02
8.032499999999999710e-03
-1.818900000000000031e-02
-3.878100000000000297e-02
-4.862299999999999955e-02
-4.688599999999999712e-02
-3.413000000000000062e-02
-1.308199999999999988e-02
1.270199999999999975e-02
3.679500000000000132e-02
5.390099999999999753e-02
6.019300000000000345e-02
5.209600000000000342e-02
3.402800000000000269e-02
1.044999999999999922e-02
-1.309399999999999974e-02
-2.981999999999999929e-02
-3.778100000000000208e-02
-3.549499999999999877e-02
-2.356099999999999861e-02
-4.353199999999999778e-03
1.800799999999999970e-02
3.890799999999999814e-02
5.401899999999999757e-02
5.960200000000000220e-02
5.513799999999999951e-02
4.150600000000000123e-02
2.138299999999999923e-02
-1.583999999999999905e-03
-2.232699999999999962e-02
-3.641899999999999998e-02
-4.063300000000000245e-02
-3.295100000000000112e-02
-1.525600000000000046e-02
9.252800000000000261e-03
3.597600000000000103e-02
6.049600000000000116e-02
7.696600000000000663e-02
8.170900000000000385e-02
7.335300000000000153e-02
5.059199999999999808e-02
2.143899999999999972e-02
-7.353900000000000020e-03
-2.920899999999999885e-02
-3.625599999999999656e-02
-3.096199999999999994e-02
-1.549700000000000036e-02
5.945500000000000264e-03
2.673599999999999935e-02
4.408600000000000019e-02
5.464499999999999913e-02
5.652399999999999786e-02
4.940499999999999753e-02
3.509199999999999819e-02
1.656699999999999839e-02
-2.457899999999999842e-03
-1.775900000000000048e-02
-2.709900000000000156e-02
-2.886899999999999883e-02
-2.284299999999999872e-02
-1.057400000000000007e-02
6.184000000000000261e-03
2.443899999999999892e-02
4.081800000000000012e-02
5.333999999999999853e-02
5.767800000000000010e-02
5.215499999999999997e-02
3.706399999999999972e-02
1.205799999999999927e-02
-1.439000000000000001e-02
-3.600300000000000028e-02
-4.743800000000000100e-02
-4.249300000000000299e-02
-2.593099999999999919e-02
-1.995699999999999991e-03
2.350599999999999912e-02
4.315800000000000192e-02
5.414200000000000262e-02
5.410600000000000132e-02
4.299700000000000050e-02
2.211400000000000171e-02
-3.018499999999999916e-03
-2.692100000000000048e-02
-4.441799999999999915e-02
-5.010400000000000270e-02
-4.499399999999999927e-02
-3.068399999999999947e-02
-1.057400000000000007e-02
1.024500000000000063e-02
2.818700000000000025e-02
3.963699999999999862e-02
4.226599999999999802e-02
3.530500000000000305e-02
2.019200000000000161e-02
-1.954600000000000022e-04
-2.191799999999999998e-02
-4.131699999999999956e-02
-5.361599999999999699e-02
-5.594699999999999673e-02
-4.740799999999999875e-02
-2.749899999999999914e-02
-2.562699999999999787e-03
2.175900000000000056e-02
3.990900000000000003e-02
4.595699999999999785e-02
4.055399999999999977e-02
2.503999999999999976e-02
2.827399999999999879e-03
-2.123200000000000087e-02
-4.209600000000000147e-02
-5.519099999999999701e-02
-5.742599999999999788e-02
-4.689000000000000112e-02
-2.644099999999999923e-02
3.752400000000000191e-05
2.746699999999999836e-02
5.025000000000000300e-02
6.443200000000000316e-02
6.733400000000000496e-02
5.841899999999999871e-02
3.864700000000000080e-02
1.302900000000000065e-02
-1.297799999999999995e-02
-3.372900000000000204e-02
-4.434199999999999947e-02
-4.216000000000000303e-02
-2.674199999999999841e-02
-1.827699999999999865e-04
3.529399999999999898e-02
7.072699999999999820e-02
9.923899999999999388e-02
1.155299999999999938e-01
1.136899999999999994e-01
1.000199999999999978e-01
8.000400000000000567e-02
6.036799999999999805e-02
4.959899999999999726e-02
4.867199999999999999e-02
5.828599999999999753e-02
7.654500000000000193e-02
1.000199999999999978e-01
1.223400000000000043e-01
1.375899999999999901e-01
1.410500000000000087e-01
1.277300000000000102e-01
1.017499999999999932e-01
6.713299999999999823e-02
2.932299999999999837e-02
-3.562800000000000081e-03
-3.052200000000000052e-02
-4.938800000000000134e-02
-5.938899999999999735e-02
-6.307899999999999618e-02
-5.874499999999999861e-02
-4.780899999999999733e-02
-3.271600000000000202e-02
-1.387700000000000045e-02
6.843799999999999493e-04
6.539599999999999580e-03
1.146499999999999950e-03
-1.939600000000000005e-02
-4.593900000000000067e-02
-7.176699999999999746e-02
-9.026399999999999701e-02
-9.279999999999999361e-02
-8.334500000000000242e-02
-6.484199999999999686e-02
-4.217300000000000215e-02
-2.293200000000000099e-02
-9.139299999999999508e-03
-3.601000000000000034e-03
-7.462800000000000336e-03
-1.974899999999999919e-02
-3.872199999999999948e-02
-6.105800000000000116e-02
-8.278299999999999548e-02
-9.997300000000000630e-02
-1.094399999999999956e-01
-1.093200000000000005e-01
-9.942199999999999649e-02
-8.164100000000000523e-02
-5.873099999999999848e-02
-3.486800000000000316e-02
-1.473000000000000004e-02
-1.056700000000000044e-03
3.289599999999999946e-04
-1.261400000000000021e-02
-3.900599999999999901e-02
-7.911799999999999389e-02
-1.194999999999999951e-01
-1.501200000000000034e-01
-1.622899999999999898e-01
-1.455599999999999949e-01
-1.068800000000000028e-01
-5.188399999999999956e-02
1.154499999999999971e-02
7.209300000000000430e-02
1.280300000000000049e-01
1.766699999999999937e-01
2.177600000000000091e-01
2.544399999999999995e-01
2.879599999999999937e-01
3.215000000000000080e-01
3.580099999999999949e-01
3.961100000000000176e-01
4.406900000000000261e-01
4.904899999999999816e-01
5.406699999999999839e-01
5.922800000000000287e-01
6.206599999999999895e-01
6.119900000000000340e-01
5.581099999999999950e-01
4.446700000000000097e-01
3.046200000000000019e-01
1.617999999999999994e-01
4.002399999999999708e-02
-2.679300000000000084e-02
-5.408199999999999813e-02
-5.001400000000000290e-02
-2.796600000000000127e-02
-1.419300000000000075e-02
-2.471600000000000012e-03
4.641799999999999746e-03
7.037599999999999759e-03
1.308199999999999988e-02
1.309699999999999927e-02
5.270399999999999738e-03
-1.088599999999999984e-02
-3.865799999999999792e-02
-6.766500000000000292e-02
-9.152599999999999625e-02
-1.047300000000000036e-01
-1.011200000000000015e-01
-8.494799999999999573e-02
-6.029500000000000137e-02
-3.298700000000000243e-02
-1.006300000000000076e-02
4.292599999999999714e-03
6.976200000000000109e-03
-2.587400000000000116e-03
-2.443499999999999839e-02
-5.084600000000000231e-02
-7.519499999999999795e-02
-9.138200000000000489e-02
-9.186700000000000421e-02
-8.068500000000000671e-02
-6.103900000000000298e-02
-3.777799999999999908e-02
-1.888600000000000001e-02
-4.698199999999999599e-03
2.898599999999999875e-03
3.316899999999999796e-03
-8.835100000000000028e-04
-1.117800000000000044e-02
-2.609500000000000014e-02
-4.323599999999999666e-02
-6.190899999999999875e-02
-7.508399999999999797e-02
-7.889100000000000279e-02
-7.123799999999999577e-02
-4.938499999999999834e-02
-2.114500000000000060e-02
7.191600000000000249e-03
2.917600000000000054e-02
3.746599999999999930e-02
3.286800000000000138e-02
1.664900000000000060e-02
-7.552599999999999592e-03
-3.467499999999999749e-02
-5.872000000000000136e-02
-7.446099999999999941e-02
-7.839699999999999447e-02
-6.748300000000000132e-02
-4.656699999999999728e-02
-2.052000000000000005e-02
4.869100000000000338e-03
2.234299999999999828e-02
3.083800000000000083e-02
2.937700000000000033e-02
1.896700000000000122e-02
2.909800000000000147e-03
-1.604600000000000123e-02
-3.403599999999999681e-02
-4.741000000000000075e-02
-5.379400000000000154e-02
-5.110800000000000065e-02
-3.938300000000000134e-02
-2.043199999999999877e-02
3.960700000000000158e-03
2.709699999999999956e-02
4.392900000000000277e-02
5.065399999999999764e-02
4.318500000000000116e-02
2.621300000000000019e-02
4.020799999999999721e-03
-1.809799999999999950e-02
-3.318000000000000116e-02
-4.025900000000000312e-02
-3.819100000000000272e-02
-2.760299999999999906e-02
-1.145099999999999937e-02
8.297600000000000461e-03
2.828200000000000158e-02
4.510900000000000326e-02
5.689999999999999919e-02
6.030300000000000243e-02
5.449400000000000077e-02
4.051500000000000240e-02
1.876299999999999843e-02
-2.743999999999999911e-03
-1.828799999999999870e-02
-2.338700000000000154e-02
-1.254800000000000013e-02
8.142299999999999885e-03
3.371600000000000291e-02
5.816799999999999748e-02
7.329399999999999804e-02
7.915500000000000314e-02
7.520799999999999708e-02
6.285100000000000409e-02
4.612200000000000327e-02
2.703699999999999853e-02
9.087700000000000639e-03
-4.466399999999999711e-03
-1.196400000000000068e-02
-1.078899999999999998e-02
-7.355400000000000219e-04
1.665600000000000067e-02
4.003000000000000308e-02
6.238799999999999901e-02
7.846599999999999409e-02
8.414299999999999558e-02
7.522700000000000220e-02
5.573600000000000082e-02
2.970400000000000124e-02
2.466900000000000169e-03
-1.953200000000000075e-02
-3.327100000000000196e-02
-3.646300000000000235e-02
-2.894800000000000151e-02
-1.204700000000000042e-02
9.453700000000000644e-03
3.047899999999999915e-02
4.604400000000000159e-02
5.146499999999999686e-02
4.605299999999999672e-02
3.046300000000000049e-02
7.384299999999999892e-03
-1.946600000000000066e-02
-4.435200000000000253e-02
-6.229900000000000021e-02
-6.961100000000000620e-02
-6.341600000000000015e-02
-4.644700000000000217e-02
-2.230299999999999991e-02
4.061399999999999733e-03
2.712399999999999881e-02
4.258499999999999786e-02
4.745300000000000212e-02
4.086999999999999661e-02
2.294500000000000012e-02
-6.343499999999999963e-04
-2.437699999999999936e-02
-4.281499999999999889e-02
-5.029700000000000143e-02
-4.683899999999999869e-02
-3.337400000000000089e-02
-1.290400000000000054e-02
1.038299999999999987e-02
3.113300000000000095e-02
4.469800000000000162e-02
4.788400000000000295e-02
3.811599999999999711e-02
1.912099999999999911e-02
-4.997599999999999612e-03
-2.913800000000000071e-02
-4.726099999999999746e-02
-5.707500000000000073e-02
-5.693299999999999750e-02
-4.714200000000000335e-02
-2.948200000000000126e-02
-8.136799999999999589e-03
1.239999999999999956e-02
2.784800000000000123e-02
3.410400000000000237e-02
3.100500000000000131e-02
1.931499999999999884e-02
1.396799999999999908e-03
-1.890500000000000166e-02
-3.824400000000000022e-02
-5.308899999999999730e-02
-6.071800000000000114e-02
-6.007099999999999940e-02
-5.069499999999999701e-02
-3.414099999999999774e-02
-1.340599999999999951e-02
9.246400000000000105e-03
2.689199999999999924e-02
3.513499999999999956e-02
3.147099999999999898e-02
1.298000000000000022e-02
-1.280500000000000041e-02
-3.963900000000000062e-02
-6.101000000000000173e-02
-6.919599999999999362e-02
-6.520199999999999607e-02
-5.019200000000000050e-02
-2.761299999999999866e-02
-2.637899999999999880e-03
1.971200000000000035e-02
3.474200000000000205e-02
3.930100000000000260e-02
3.106199999999999933e-02
1.362900000000000049e-02
-8.874099999999999350e-03
-3.135199999999999793e-02
-4.790300000000000114e-02
-5.614700000000000246e-02
-5.449999999999999983e-02
-4.339699999999999808e-02
-2.455999999999999850e-02
-2.717600000000000137e-03
1.739100000000000021e-02
3.139900000000000330e-02
3.505899999999999989e-02
2.901600000000000013e-02
1.469099999999999920e-02
-4.889700000000000296e-03
-2.531399999999999970e-02
-4.306100000000000205e-02
-5.469799999999999662e-02
-5.793299999999999839e-02
-5.192700000000000093e-02
-3.781400000000000039e-02
-1.815400000000000000e-02
3.400400000000000037e-03
2.345399999999999915e-02
3.712499999999999828e-02
4.135500000000000287e-02
3.491199999999999859e-02
1.700899999999999981e-02
-6.600899999999999823e-03
-3.063899999999999957e-02
-4.971199999999999924e-02
-5.817100000000000048e-02
-5.571099999999999663e-02
-4.295999999999999819e-02
-2.264899999999999899e-02
1.485299999999999945e-03
2.364099999999999882e-02
3.889900000000000302e-02
4.374999999999999722e-02
3.500799999999999745e-02
1.678199999999999831e-02
-6.710200000000000366e-03
-3.022999999999999993e-02
-4.715899999999999953e-02
-5.590300000000000130e-02
-5.502499999999999752e-02
-4.492800000000000266e-02
-2.807300000000000073e-02
-7.178699999999999665e-03
1.395500000000000039e-02
3.150300000000000322e-02
4.251300000000000218e-02
4.464400000000000313e-02
3.737999999999999656e-02
2.194300000000000070e-02
1.746999999999999909e-04
-2.253099999999999895e-02
-4.148000000000000298e-02
-5.269599999999999979e-02
-5.282400000000000290e-02
-4.297499999999999931e-02
-2.535499999999999907e-02
-3.766300000000000203e-03
1.776799999999999907e-02
3.368600000000000066e-02
4.011100000000000082e-02
3.513000000000000150e-02
1.707699999999999843e-02
-7.587199999999999674e-03
-3.309499999999999942e-02
-5.346399999999999764e-02
-6.189599999999999963e-02
-5.882099999999999829e-02
-4.513199999999999851e-02
-2.388300000000000145e-02
3.416299999999999936e-04
2.251799999999999982e-02
3.800499999999999712e-02
4.355099999999999943e-02
3.657200000000000034e-02
2.038500000000000034e-02
-1.227400000000000019e-03
-2.347499999999999934e-02
-4.049400000000000222e-02
-5.020000000000000157e-02
-5.093299999999999911e-02
-4.280799999999999883e-02
-2.773300000000000071e-02
-8.697699999999999182e-03
1.044299999999999916e-02
2.579100000000000142e-02
3.437699999999999784e-02
3.389099999999999752e-02
2.398799999999999891e-02
6.204799999999999899e-03
-1.771500000000000158e-02
-4.111599999999999977e-02
-5.872499999999999942e-02
-6.634700000000000319e-02
-5.987100000000000061e-02
-4.278699999999999865e-02
-1.883999999999999911e-02
6.827999999999999868e-03
2.811200000000000157e-02
4.142300000000000149e-02
4.410000000000000031e-02
3.562099999999999989e-02
1.672900000000000081e-02
-7.364500000000000386e-03
-3.134499999999999786e-02
-4.993500000000000022e-02
-5.806399999999999756e-02
-5.506799999999999889e-02
-4.162899999999999934e-02
-2.057099999999999901e-02
4.520200000000000259e-03
2.719299999999999842e-02
4.222700000000000065e-02
4.596299999999999691e-02
3.498099999999999821e-02
1.413000000000000020e-02
-1.178200000000000081e-02
-3.692700000000000149e-02
-5.415199999999999875e-02
-6.177200000000000052e-02
-5.847900000000000320e-02
-4.510800000000000226e-02
-2.450499999999999901e-02
-6.013200000000000229e-04
2.195199999999999929e-02
3.876799999999999691e-02
4.642199999999999799e-02
4.353400000000000325e-02
3.058200000000000154e-02
9.986300000000000038e-03
-1.546100000000000078e-02
-3.919999999999999873e-02
-5.608500000000000291e-02
-6.235799999999999677e-02
-5.429300000000000098e-02
-3.640100000000000280e-02
-1.302999999999999992e-02
1.043999999999999963e-02
2.718999999999999889e-02
3.580699999999999855e-02
3.500000000000000333e-02
2.537299999999999972e-02
9.522400000000000309e-03
-9.583500000000000005e-03
-2.808099999999999832e-02
-4.225600000000000189e-02
-4.927800000000000236e-02
-4.756799999999999917e-02
-3.726000000000000145e-02
-2.017599999999999949e-02
1.431100000000000037e-03
2.201699999999999838e-02
3.707599999999999785e-02
4.314300000000000079e-02
3.721100000000000102e-02
2.198500000000000107e-02
7.313699999999999585e-04
-2.204000000000000056e-02
-4.123099999999999682e-02
-5.309500000000000330e-02
-5.501999999999999946e-02
-4.636500000000000343e-02
-2.749800000000000161e-02
-3.598899999999999929e-03
2.018800000000000108e-02
3.869899999999999729e-02
4.681899999999999951e-02
4.395099999999999701e-02
3.065999999999999975e-02
9.577999999999999708e-03
-1.564199999999999965e-02
-3.926099999999999729e-02
-5.632299999999999807e-02
-6.316700000000000093e-02
-5.664999999999999897e-02
-4.005700000000000233e-02
-1.713100000000000039e-02
7.190300000000000163e-03
2.693299999999999861e-02
3.929200000000000054e-02
4.208100000000000035e-02
3.501499999999999752e-02
1.946799999999999919e-02
-9.379300000000000137e-04
-2.188800000000000121e-02
-3.896700000000000164e-02
-4.851099999999999857e-02
-4.839000000000000246e-02
-3.837399999999999839e-02
-2.027599999999999889e-02
3.897299999999999810e-03
2.699100000000000110e-02
4.345199999999999757e-02
4.902900000000000313e-02
3.927300000000000235e-02
1.899700000000000000e-02
-7.226800000000000238e-03
-3.359800000000000286e-02
-5.275200000000000028e-02
-6.274799999999999822e-02
-6.187499999999999944e-02
-5.052999999999999853e-02
-3.117500000000000132e-02
-7.496599999999999965e-03
1.592700000000000018e-02
3.459099999999999675e-02
4.482099999999999973e-02
4.472600000000000187e-02
3.427499999999999991e-02
1.542400000000000021e-02
-9.258799999999999322e-03
-3.350100000000000300e-02
-5.208499999999999935e-02
-6.090799999999999687e-02
-5.632000000000000201e-02
-4.115900000000000114e-02
-1.888499999999999901e-02
5.602000000000000209e-03
2.671600000000000016e-02
4.024099999999999899e-02
4.320199999999999735e-02
3.478500000000000342e-02
1.499400000000000038e-02
-1.011500000000000073e-02
-3.487500000000000322e-02
-5.371900000000000286e-02
-6.040999999999999842e-02
-5.601400000000000129e-02
-4.188299999999999662e-02
-2.125000000000000153e-02
4.904799999999999525e-04
2.032600000000000032e-02
3.465200000000000224e-02
4.090300000000000186e-02
3.854300000000000087e-02
2.719399999999999942e-02
8.698499999999999635e-03
-1.368800000000000051e-02
-3.747400000000000037e-02
-5.574199999999999988e-02
-6.414699999999999569e-02
-6.029799999999999743e-02
-4.148000000000000298e-02
-1.525600000000000046e-02
1.206199999999999981e-02
3.393199999999999689e-02
4.257299999999999973e-02
3.910099999999999687e-02
2.472900000000000098e-02
2.921599999999999892e-03
-2.084599999999999995e-02
-4.214600000000000291e-02
-5.650999999999999773e-02
-6.088299999999999962e-02
-5.350599999999999801e-02
-3.669200000000000239e-02
-1.392599999999999914e-02
1.012500000000000032e-02
3.052900000000000058e-02
4.309199999999999836e-02
4.511400000000000132e-02
3.598799999999999916e-02
1.600599999999999939e-02
-9.006800000000000569e-03
-3.350299999999999806e-02
-5.201999999999999680e-02
-5.906700000000000145e-02
-5.460799999999999682e-02
-3.966999999999999693e-02
-1.740699999999999886e-02
7.941300000000000095e-03
3.054899999999999977e-02
4.547500000000000153e-02
4.932299999999999879e-02
3.946399999999999908e-02
1.974000000000000060e-02
-5.462400000000000068e-03
-3.063600000000000004e-02
-4.970399999999999818e-02
-5.929100000000000342e-02
-5.731300000000000283e-02
-4.402600000000000263e-02
-2.073399999999999896e-02
6.133300000000000383e-03
3.061499999999999985e-02
4.723100000000000215e-02
5.030199999999999949e-02
4.139600000000000224e-02
2.264999999999999999e-02
-1.893200000000000048e-03
-2.641800000000000051e-02
-4.701099999999999723e-02
-5.981800000000000311e-02
-6.249600000000000294e-02
-5.430600000000000011e-02
-3.728200000000000264e-02
-1.478499999999999953e-02
8.822299999999999934e-03
2.915600000000000136e-02
4.210499999999999660e-02
4.510600000000000026e-02
3.752599999999999686e-02
1.957100000000000159e-02
-3.464800000000000085e-03
-2.650599999999999831e-02
-4.451299999999999701e-02
-5.228300000000000308e-02
-4.977600000000000080e-02
-3.777900000000000008e-02
-1.896899999999999975e-02
2.623799999999999917e-03
2.252300000000000135e-02
3.652899999999999897e-02
4.158900000000000097e-02
3.570799999999999669e-02
2.071399999999999977e-02
-4.661199999999999892e-04
-2.368400000000000019e-02
-4.451399999999999801e-02
-5.864699999999999774e-02
-6.316399999999999793e-02
-5.702200000000000324e-02
-3.993100000000000122e-02
-1.715600000000000111e-02
6.250799999999999933e-03
2.514100000000000015e-02
3.416399999999999992e-02
3.295599999999999918e-02
2.206199999999999828e-02
4.003999999999999747e-03
-1.757299999999999834e-02
-3.754199999999999898e-02
-5.138700000000000212e-02
-5.584200000000000275e-02
-4.831599999999999784e-02
-3.178600000000000175e-02
-9.837399999999999617e-03
1.281599999999999927e-02
3.090499999999999844e-02
4.105600000000000221e-02
4.103300000000000003e-02
3.062499999999999944e-02
1.055599999999999941e-02
-1.369199999999999931e-02
-3.690899999999999737e-02
-5.410700000000000232e-02
-6.005800000000000027e-02
-5.551099999999999784e-02
-4.179999999999999688e-02
-2.203099999999999850e-02
-8.525899999999999668e-04
1.801499999999999976e-02
3.090000000000000038e-02
3.532300000000000023e-02
3.011600000000000041e-02
1.679299999999999890e-02
-1.904099999999999933e-03
-2.218600000000000086e-02
-4.009999999999999676e-02
-5.171300000000000202e-02
-5.440899999999999903e-02
-4.728299999999999864e-02
-3.035399999999999904e-02
-8.078099999999999517e-03
1.496600000000000014e-02
3.398400000000000032e-02
4.433299999999999741e-02
4.449899999999999689e-02
3.431399999999999728e-02
1.563000000000000153e-02
-8.909099999999999658e-03
-3.334999999999999770e-02
-5.258800000000000280e-02
-6.255900000000000349e-02
-5.943999999999999978e-02
-4.611599999999999727e-02
-2.585700000000000151e-02
-3.262199999999999822e-03
1.596300000000000149e-02
2.878000000000000003e-02
3.272400000000000309e-02
2.714199999999999946e-02
1.272799999999999973e-02
-6.725199999999999755e-03
-2.698100000000000151e-02
-4.367700000000000055e-02
-5.260299999999999698e-02
-5.261300000000000004e-02
-4.373900000000000010e-02
-2.779999999999999832e-02
-7.570499999999999972e-03
1.212399999999999936e-02
2.696399999999999839e-02
3.355899999999999855e-02
2.936899999999999927e-02
1.598799999999999874e-02
-3.889800000000000115e-03
-2.617699999999999888e-02
-4.673499999999999877e-02
-6.034099999999999880e-02
-6.358600000000000363e-02
-5.514399999999999857e-02
-3.396699999999999720e-02
-7.005499999999999575e-03
1.963099999999999914e-02
3.983899999999999941e-02
4.678700000000000220e-02
4.144199999999999967e-02
2.520100000000000118e-02
1.628700000000000070e-03
-2.402100000000000068e-02
-4.692700000000000343e-02
-6.253599999999999437e-02
-6.778099999999999403e-02
-6.044000000000000067e-02
-4.372399999999999898e-02
-2.140600000000000142e-02
1.787299999999999913e-03
1.999599999999999989e-02
3.133500000000000174e-02
3.418500000000000011e-02
2.856300000000000158e-02
1.647799999999999959e-02
-2.920700000000000005e-05
-1.771199999999999858e-02
-3.313900000000000179e-02
-4.395999999999999908e-02
-4.707000000000000073e-02
-4.149499999999999716e-02
-2.801899999999999877e-02
-7.352899999999999887e-03
1.386199999999999932e-02
3.047599999999999962e-02
3.821100000000000191e-02
3.259100000000000191e-02
1.697099999999999997e-02
-5.211799999999999940e-03
-2.911700000000000052e-02
-4.891999999999999821e-02
-6.117700000000000221e-02
-6.331199999999999328e-02
-5.480700000000000155e-02
-3.612300000000000233e-02
-1.269699999999999995e-02
1.022699999999999998e-02
2.752999999999999892e-02
3.391500000000000070e-02
2.977700000000000138e-02
1.627899999999999833e-02
-3.512200000000000044e-03
-2.525499999999999967e-02
-4.432300000000000129e-02
-5.656599999999999823e-02
-5.920600000000000168e-02
-5.039600000000000329e-02
-3.305700000000000305e-02
-1.083899999999999968e-02
1.161399999999999932e-02
2.918799999999999867e-02
3.871999999999999748e-02
3.815899999999999848e-02
2.740599999999999981e-02
7.603799999999999969e-03
-1.649400000000000172e-02
-3.998800000000000271e-02
-5.806499999999999856e-02
-6.632499999999999507e-02
-6.384700000000000097e-02
-5.115700000000000108e-02
-3.079199999999999993e-02
-5.894199999999999613e-03
1.721599999999999867e-02
3.344799999999999857e-02
3.911200000000000093e-02
3.064899999999999916e-02
1.245199999999999953e-02
-1.116299999999999931e-02
-3.486199999999999716e-02
-5.192700000000000093e-02
-6.087100000000000150e-02
-6.038899999999999824e-02
-5.107899999999999940e-02
-3.545700000000000240e-02
-1.665099999999999913e-02
1.407700000000000010e-03
1.497099999999999993e-02
2.117099999999999885e-02
1.861000000000000154e-02
7.590200000000000072e-03
-9.876199999999999909e-03
-3.130499999999999949e-02
-5.110800000000000065e-02
-6.474399999999999600e-02
-6.878900000000000292e-02
-6.038000000000000311e-02
-4.233599999999999863e-02
-1.812799999999999828e-02
7.490100000000000403e-03
2.924399999999999916e-02
4.300600000000000256e-02
4.592899999999999761e-02
3.724399999999999933e-02
1.731800000000000006e-02
-8.489500000000000518e-03
-3.474300000000000305e-02
-5.590699999999999836e-02
-6.669500000000000428e-02
-6.582100000000000450e-02
-5.354099999999999832e-02
-3.242099999999999843e-02
-5.728699999999999765e-03
1.938799999999999898e-02
3.713299999999999934e-02
4.322199999999999653e-02
3.355500000000000149e-02
1.289700000000000048e-02
-1.393499999999999947e-02
-4.085899999999999949e-02
-6.052899999999999947e-02
-7.035800000000000387e-02
-6.844400000000000484e-02
-5.525100000000000150e-02
-3.281300000000000189e-02
-6.559200000000000273e-03
1.799600000000000158e-02
3.574100000000000193e-02
4.163800000000000140e-02
3.639400000000000274e-02
2.155400000000000024e-02
4.946500000000000159e-04
-2.180899999999999853e-02
-4.146099999999999786e-02
-5.463900000000000007e-02
-5.880200000000000010e-02
-5.284099999999999908e-02
-3.832599999999999896e-02
-1.815500000000000100e-02
3.678499999999999912e-03
2.299500000000000155e-02
3.565200000000000313e-02
3.886599999999999777e-02
3.162800000000000333e-02
1.416300000000000024e-02
-9.329999999999999752e-03
-3.417699999999999905e-02
-5.532800000000000218e-02
-6.832799999999999985e-02
-7.028099999999999625e-02
-6.035100000000000187e-02
-4.005899999999999739e-02
-1.118000000000000070e-02
1.806999999999999926e-02
4.113800000000000096e-02
5.269100000000000172e-02
4.697799999999999893e-02
2.869899999999999882e-02
2.316700000000000096e-03
-2.615200000000000163e-02
-4.867900000000000005e-02
-6.300600000000000644e-02
-6.683500000000000552e-02
-5.999000000000000166e-02
-4.458100000000000257e-02
-2.371799999999999950e-02
-1.746699999999999902e-03
1.681600000000000109e-02
2.836299999999999932e-02
3.009799999999999975e-02
2.135799999999999851e-02
3.596199999999999918e-03
-2.134499999999999939e-02
-4.637299999999999756e-02
-6.572300000000000364e-02
-7.470999999999999863e-02
-6.878299999999999692e-02
-5.132899999999999963e-02
-2.615400000000000016e-02
1.324000000000000090e-03
2.470500000000000126e-02
3.965699999999999781e-02
4.297800000000000231e-02
3.379200000000000259e-02
1.242200000000000075e-02
-1.511999999999999976e-02
-4.285699999999999926e-02
-6.478200000000000625e-02
-7.477300000000000613e-02
-7.242700000000000526e-02
-5.848500000000000226e-02
-3.601399999999999740e-02
-9.298000000000000709e-03
1.544799999999999993e-02
3.284999999999999726e-02
3.905499999999999944e-02
3.080199999999999952e-02
1.202100000000000043e-02
-1.293900000000000085e-02
-3.852099999999999969e-02
-5.817599999999999855e-02
-6.903900000000000314e-02
-6.907599999999999851e-02
-5.845100000000000295e-02
-3.864700000000000080e-02
-1.492199999999999950e-02
7.512699999999999760e-03
2.378200000000000106e-02
2.891000000000000167e-02
2.376100000000000087e-02
9.830500000000000696e-03
-9.684899999999999759e-03
-3.002399999999999861e-02
-4.775499999999999884e-02
-5.944900000000000184e-02
-6.288199999999999346e-02
-5.715800000000000047e-02
-4.379899999999999766e-02
-2.550399999999999889e-02
-5.909900000000000049e-03
1.134100000000000039e-02
2.249200000000000157e-02
2.517799999999999899e-02
1.870700000000000141e-02
2.968499999999999785e-03
-1.716200000000000017e-02
-3.714800000000000046e-02
-5.248799999999999993e-02
-5.831800000000000178e-02
-5.501899999999999846e-02
-4.345799999999999663e-02
-2.612199999999999939e-02
-6.958599999999999682e-03
1.072900000000000069e-02
2.354300000000000143e-02
2.902300000000000019e-02
2.608399999999999955e-02
1.528200000000000044e-02
-1.320999999999999909e-03
-2.048000000000000168e-02
-3.923000000000000098e-02
-5.244000000000000050e-02
-5.682799999999999657e-02
-5.086399999999999949e-02
-3.333900000000000058e-02
-1.002899999999999972e-02
1.378300000000000011e-02
3.257700000000000179e-02
4.062299999999999939e-02
3.718799999999999883e-02
2.266100000000000059e-02
-3.048300000000000206e-04
-2.809800000000000145e-02
-5.414700000000000069e-02
-7.289299999999999946e-02
-8.019500000000000239e-02
-7.225900000000000378e-02
-5.314699999999999980e-02
-2.720799999999999955e-02
-1.045199999999999954e-04
2.123600000000000140e-02
3.396300000000000013e-02
3.581600000000000061e-02
2.668200000000000086e-02
8.389999999999999888e-03
-1.503799999999999928e-02
-3.876299999999999885e-02
-5.787699999999999789e-02
-6.829200000000000548e-02
-6.776000000000000079e-02
-5.607899999999999691e-02
-3.528099999999999986e-02
-7.836600000000000857e-03
1.878200000000000008e-02
3.856500000000000206e-02
4.681600000000000344e-02
3.900499999999999801e-02
1.922099999999999850e-02
-8.163600000000000023e-03
-3.725200000000000039e-02
-6.092000000000000193e-02
-7.552999999999999992e-02
-7.831000000000000461e-02
-6.886599999999999666e-02
-4.831099999999999978e-02
-2.221300000000000011e-02
3.664900000000000015e-03
2.363099999999999923e-02
3.200399999999999773e-02
2.841700000000000129e-02
1.364199999999999961e-02
-9.376999999999999919e-03
-3.606899999999999690e-02
-6.133199999999999763e-02
-8.025100000000000289e-02
-8.911700000000000177e-02
-8.564900000000000291e-02
-7.112999999999999878e-02
-4.848299999999999832e-02
-2.223599999999999882e-02
3.237199999999999973e-03
2.149300000000000169e-02
2.834899999999999920e-02
2.194899999999999976e-02
5.335599999999999805e-04
-2.789300000000000113e-02
-5.648000000000000242e-02
-7.837800000000000322e-02
-8.551999999999999880e-02
-7.973900000000000432e-02
-6.286899999999999433e-02
-3.901199999999999807e-02
-1.455900000000000076e-02
6.496199999999999718e-03
1.993299999999999933e-02
2.310900000000000107e-02
1.523099999999999975e-02
-1.773300000000000006e-03
-2.433799999999999852e-02
-4.772099999999999953e-02
-6.771599999999999842e-02
-7.874299999999999355e-02
-7.771200000000000330e-02
-6.399900000000000033e-02
-3.701200000000000323e-02
-5.574499999999999594e-03
2.306800000000000170e-02
4.220399999999999846e-02
4.429899999999999810e-02
3.252599999999999936e-02
1.016399999999999942e-02
-1.723900000000000085e-02
-4.236299999999999788e-02
-6.010800000000000171e-02
-6.605600000000000360e-02
-5.809899999999999787e-02
-3.510400000000000326e-02
-3.069699999999999859e-03
3.207900000000000335e-02
6.405600000000000183e-02
8.534700000000000619e-02
9.616299999999999848e-02
9.671699999999999742e-02
8.915700000000000014e-02
7.772400000000000142e-02
6.499000000000000610e-02
5.410999999999999838e-02
4.736699999999999938e-02
4.652499999999999691e-02
4.992599999999999816e-02
5.551500000000000185e-02
6.060700000000000115e-02
6.107200000000000129e-02
5.702499999999999930e-02
4.786800000000000083e-02
3.371400000000000091e-02
1.730599999999999847e-02
-3.333700000000000205e-03
-2.745600000000000124e-02
-5.341200000000000114e-02
-8.179000000000000159e-02
-1.045500000000000040e-01
-1.172499999999999931e-01
-1.171500000000000041e-01
-9.991200000000000081e-02
-7.461099999999999677e-02
-4.794699999999999657e-02
-2.676999999999999866e-02
-2.001400000000000054e-02
-2.483199999999999991e-02
-3.931500000000000272e-02
-5.955799999999999983e-02
-7.900600000000000678e-02
-9.552800000000000180e-02
-1.061300000000000021e-01
-1.091300000000000048e-01
-1.046399999999999969e-01
-9.369199999999999751e-02
-7.880900000000000405e-02
-6.330099999999999616e-02
-5.023199999999999887e-02
-4.322499999999999953e-02
-4.436400000000000066e-02
-5.411900000000000044e-02
-7.205499999999999405e-02
-9.381499999999999562e-02
-1.149799999999999989e-01
-1.310499999999999998e-01
-1.388199999999999990e-01
-1.357599999999999918e-01
-1.219100000000000045e-01
-9.975299999999999445e-02
-7.090699999999999781e-02
-4.581199999999999856e-02
-3.155399999999999872e-02
-3.296600000000000225e-02
-5.627900000000000263e-02
-9.054600000000000148e-02
-1.268600000000000005e-01
-1.552999999999999936e-01
-1.628699999999999870e-01
-1.504099999999999882e-01
-1.178199999999999942e-01
-6.797000000000000264e-02
-7.844900000000000137e-03
5.974299999999999750e-02
1.296899999999999997e-01
1.973199999999999954e-01
2.608099999999999863e-01
3.148799999999999932e-01
3.579399999999999804e-01
3.903400000000000203e-01
4.086199999999999832e-01
4.244499999999999940e-01
4.429799999999999849e-01
4.662399999999999878e-01
5.032699999999999951e-01
5.297800000000000287e-01
5.317899999999999849e-01
4.985100000000000087e-01
4.107299999999999840e-01
2.966099999999999848e-01
1.747400000000000064e-01
6.477299999999999724e-02
-2.209500000000000092e-03
-4.118299999999999739e-02
-5.804399999999999837e-02
-6.208700000000000330e-02
-7.495400000000000673e-02
-8.438199999999999867e-02
-8.834999999999999798e-02
-8.428900000000000281e-02
-6.221600000000000047e-02
-3.652999999999999997e-02
-1.428300000000000056e-02
-2.110100000000000170e-03
-9.637299999999999686e-03
-2.996800000000000158e-02
-5.850700000000000345e-02
-8.891400000000000692e-02
-1.129700000000000010e-01
-1.276899999999999979e-01
-1.304500000000000104e-01
-1.210900000000000032e-01
-1.009599999999999942e-01
-7.569900000000000240e-02
-5.099399999999999766e-02
-3.223600000000000076e-02
-2.543499999999999928e-02
-2.907799999999999968e-02
-4.152900000000000341e-02
-5.947899999999999715e-02
-7.718300000000000161e-02
-9.297099999999999809e-02
-1.041200000000000042e-01
-1.088400000000000062e-01
-1.075900000000000051e-01
-9.904000000000000303e-02
-8.427600000000000369e-02
-6.561799999999999577e-02
-4.417000000000000093e-02
-2.689100000000000171e-02
-1.796199999999999880e-02
-1.986100000000000018e-02
-3.574999999999999706e-02
-5.825199999999999823e-02
-8.146699999999999775e-02
-9.927300000000000013e-02
-1.043099999999999999e-01
-9.794300000000000228e-02
-8.156199999999999561e-02
-5.871300000000000130e-02
-3.444799999999999945e-02
-1.372400000000000009e-02
-9.811600000000000182e-04
9.735600000000000503e-04
-1.010899999999999993e-02
-2.979300000000000004e-02
-5.356000000000000344e-02
-7.615600000000000147e-02
-9.080199999999999383e-02
-9.705900000000000638e-02
-9.424599999999999644e-02
-8.333899999999999642e-02
-6.800900000000000001e-02
-4.924400000000000305e-02
-2.990900000000000156e-02
-1.300199999999999967e-02
5.166899999999999878e-04
5.847500000000000267e-03
1.324099999999999930e-03
-1.280899999999999921e-02
-3.705900000000000166e-02
-6.283600000000000296e-02
-8.379899999999999849e-02
-9.448299999999999754e-02
-8.863799999999999457e-02
-7.064600000000000046e-02
-4.453399999999999720e-02
-1.600700000000000039e-02
7.568199999999999754e-03
2.294900000000000065e-02
2.732899999999999913e-02
2.013699999999999865e-02
2.479499999999999933e-03
-2.094400000000000081e-02
-4.490299999999999847e-02
-6.408800000000000607e-02
-7.347700000000000065e-02
-7.174400000000000222e-02
-5.907199999999999951e-02
-3.783799999999999664e-02
-1.114799999999999992e-02
1.436800000000000056e-02
3.327299999999999702e-02
4.151599999999999735e-02
3.503300000000000164e-02
1.838599999999999957e-02
-4.024800000000000252e-03
-2.670000000000000151e-02
-4.236100000000000282e-02
-4.991899999999999810e-02
-4.808699999999999780e-02
-3.742199999999999693e-02
-2.098300000000000165e-02
-6.928400000000000140e-04
1.995200000000000098e-02
3.734400000000000219e-02
4.951400000000000245e-02
5.254400000000000043e-02
4.529999999999999999e-02
2.866700000000000151e-02
3.026899999999999903e-03
-2.317500000000000115e-02
-4.369399999999999673e-02
-5.342700000000000227e-02
-4.657900000000000235e-02
-2.832399999999999848e-02
-3.322199999999999979e-03
2.229199999999999932e-02
4.072599999999999831e-02
4.949100000000000027e-02
4.649199999999999861e-02
3.199099999999999860e-02
8.134399999999999964e-03
-2.017700000000000049e-02
-4.752399999999999680e-02
-6.867800000000000293e-02
-7.900200000000000278e-02
-7.753500000000000669e-02
-6.497799999999999410e-02
-4.421300000000000230e-02
-1.881000000000000033e-02
4.460600000000000329e-03
2.015300000000000077e-02
2.438999999999999849e-02
1.361399999999999937e-02
-7.482899999999999795e-03
-3.412199999999999955e-02
-6.040000000000000230e-02
-7.919900000000000551e-02
-8.828800000000000536e-02
-8.603500000000000036e-02
-7.305799999999999794e-02
-5.175199999999999939e-02
-2.682199999999999862e-02
-3.371400000000000091e-03
1.382000000000000069e-02
2.058499999999999913e-02
1.640099999999999891e-02
2.231100000000000184e-03
-1.901800000000000018e-02
-4.362100000000000005e-02
-6.584500000000000075e-02
-8.096000000000000418e-02
-8.567600000000000215e-02
-7.724499999999999422e-02
-5.949299999999999727e-02
-3.656000000000000222e-02
-1.360800000000000030e-02
3.322499999999999933e-03
1.176499999999999942e-02
1.000400000000000074e-02
-1.654599999999999994e-03
-2.130999999999999908e-02
-4.469800000000000162e-02
-6.713700000000000223e-02
-8.411499999999999533e-02
-9.168099999999999861e-02
-8.892600000000000504e-02
-7.642500000000000682e-02
-5.666000000000000203e-02
-3.284800000000000220e-02
-1.075899999999999947e-02
4.800699999999999759e-03
1.028600000000000000e-02
2.802100000000000077e-03
-1.461100000000000072e-02
-3.827099999999999946e-02
-6.323700000000000154e-02
-8.387799999999999423e-02
-9.651700000000000557e-02
-9.856900000000000384e-02
-8.951900000000000135e-02
-7.003600000000000103e-02
-4.528700000000000087e-02
-2.050099999999999839e-02
-8.967499999999999777e-04
8.437599999999999961e-03
6.811099999999999620e-03
-5.232099999999999945e-03
-2.507600000000000107e-02
-4.902999999999999720e-02
-7.145700000000000662e-02
-8.745600000000000596e-02
-9.341800000000000104e-02
-8.636000000000000620e-02
-6.942299999999999860e-02
-4.633700000000000319e-02
-2.205899999999999875e-02
-2.273999999999999980e-03
9.554800000000000446e-03
1.100499999999999916e-02
1.717299999999999946e-03
-1.751700000000000132e-02
-4.153899999999999954e-02
-6.520900000000000307e-02
-8.350100000000000577e-02
-9.122099999999999653e-02
-8.854800000000000171e-02
-7.641599999999999782e-02
-5.758800000000000030e-02
-3.627600000000000269e-02
-1.656200000000000033e-02
-2.386399999999999893e-03
3.432900000000000014e-03
-6.671399999999999856e-04
-1.329400000000000026e-02
-3.176999999999999963e-02
-5.222899999999999765e-02
-7.081600000000000394e-02
-8.290300000000000447e-02
-8.552700000000000580e-02
-7.762399999999999856e-02
-5.854800000000000282e-02
-3.433400000000000341e-02
-1.040600000000000032e-02
7.822300000000000780e-03
1.447700000000000028e-02
1.007599999999999989e-02
-4.262600000000000069e-03
-2.542799999999999921e-02
-4.870700000000000029e-02
-6.966799999999999382e-02
-8.402600000000000346e-02
-8.876799999999999968e-02
-8.227199999999999791e-02
-6.626400000000000345e-02
-4.388000000000000234e-02
-1.956400000000000153e-02
2.470200000000000087e-03
1.667300000000000032e-02
1.963700000000000168e-02
1.019899999999999973e-02
-1.257999999999999917e-02
-4.107299999999999840e-02
-6.872200000000000530e-02
-8.912499999999999589e-02
-9.483099999999999863e-02
-8.783699999999999841e-02
-7.012500000000000677e-02
-4.576899999999999719e-02
-2.125900000000000012e-02
1.110299999999999991e-04
1.448600000000000061e-02
1.937399999999999886e-02
1.440100000000000061e-02
9.882199999999999676e-05
-2.093400000000000122e-02
-4.482499999999999679e-02
-6.818799999999999861e-02
-8.502500000000000335e-02
-9.159200000000000674e-02
-8.617700000000000360e-02
-6.719999999999999585e-02
-4.159299999999999803e-02
-1.538800000000000064e-02
5.276300000000000261e-03
1.355300000000000081e-02
1.002300000000000066e-02
-4.197799999999999795e-03
-2.577099999999999877e-02
-4.986000000000000154e-02
-7.123599999999999377e-02
-8.519599999999999396e-02
-8.859100000000000308e-02
-7.896599999999999453e-02
-6.024999999999999800e-02
-3.674399999999999888e-02
-1.369700000000000084e-02
2.696800000000000065e-03
1.034999999999999983e-02
7.813300000000000453e-03
-4.355600000000000270e-03
-2.386500000000000080e-02
-4.673100000000000170e-02
-6.842299999999999771e-02
-8.462100000000000177e-02
-9.176800000000000235e-02
-8.869599999999999707e-02
-7.589700000000000613e-02
-5.574599999999999694e-02
-3.102399999999999949e-02
-7.984800000000000231e-03
8.443499999999999617e-03
1.467500000000000054e-02
7.243799999999999892e-03
-9.614100000000000423e-03
-3.172400000000000220e-02
-5.390600000000000253e-02
-6.960500000000000020e-02
-7.734900000000000109e-02
-7.582400000000000251e-02
-6.556099999999999428e-02
-4.910400000000000181e-02
-2.930599999999999872e-02
-1.000500000000000000e-02
5.016900000000000352e-03
1.309899999999999953e-02
1.193100000000000063e-02
1.285300000000000071e-03
-1.721100000000000060e-02
-4.171099999999999808e-02
-6.560000000000000553e-02
-8.362200000000000188e-02
-9.159499999999999587e-02
-8.557700000000000029e-02
-6.878099999999999492e-02
-4.485800000000000204e-02
-1.891100000000000073e-02
3.314600000000000012e-03
1.745800000000000129e-02
2.051299999999999998e-02
1.174399999999999923e-02
-8.821400000000000075e-03
-3.462400000000000200e-02
-5.966500000000000276e-02
-7.815099999999999825e-02
-8.371800000000000075e-02
-7.772300000000000042e-02
-6.191699999999999982e-02
-4.005500000000000033e-02
-1.762999999999999984e-02
1.232900000000000098e-03
1.255599999999999945e-02
1.387500000000000018e-02
4.089599999999999659e-03
-1.420800000000000014e-02
-3.735600000000000032e-02
-6.072999999999999926e-02
-7.939699999999999536e-02
-8.991399999999999393e-02
-9.009799999999999753e-02
-7.971999999999999920e-02
-5.974000000000000143e-02
-3.501100000000000045e-02
-1.050099999999999992e-02
8.854499999999999524e-03
1.847700000000000037e-02
1.731600000000000153e-02
5.747399999999999731e-03
-1.382300000000000022e-02
-3.809400000000000286e-02
-6.118900000000000033e-02
-7.809499999999999775e-02
-8.504200000000000648e-02
-7.888799999999999979e-02
-6.262099999999999611e-02
-3.990199999999999997e-02
-1.571399999999999880e-02
4.390100000000000079e-03
1.635100000000000095e-02
1.743400000000000158e-02
7.096400000000000104e-03
-1.429700000000000068e-02
-4.062299999999999939e-02
-6.611899999999999722e-02
-8.518499999999999683e-02
-9.169199999999999573e-02
-8.663099999999999967e-02
-7.141300000000000425e-02
-4.937400000000000122e-02
-2.592099999999999960e-02
-4.446000000000000299e-03
1.121600000000000028e-02
1.833699999999999913e-02
1.616499999999999881e-02
4.597699999999999704e-03
-1.431999999999999940e-02
-3.711699999999999722e-02
-6.095400000000000124e-02
-7.909399999999999764e-02
-8.726699999999999735e-02
-8.319999999999999618e-02
-6.436799999999999466e-02
-3.828999999999999765e-02
-1.125899999999999991e-02
1.024500000000000063e-02
1.851799999999999974e-02
1.481500000000000004e-02
4.424799999999999784e-04
-2.109000000000000111e-02
-4.420999999999999930e-02
-6.479200000000000237e-02
-7.857400000000000495e-02
-8.269700000000000661e-02
-7.558199999999999641e-02
-5.948500000000000315e-02
-3.778200000000000308e-02
-1.494999999999999975e-02
4.202799999999999592e-03
1.588200000000000028e-02
1.760099999999999859e-02
8.823400000000000340e-03
-9.915200000000000749e-03
-3.361200000000000299e-02
-5.723500000000000115e-02
-7.574599999999999389e-02
-8.426799999999999569e-02
-8.203000000000000569e-02
-6.952500000000000346e-02
-4.929800000000000154e-02
-2.474200000000000010e-02
-1.824300000000000054e-03
1.445600000000000010e-02
2.044299999999999937e-02
1.302099999999999959e-02
-4.288499999999999777e-03
-2.749300000000000008e-02
-5.138999999999999818e-02
-7.000199999999999478e-02
-8.006199999999999428e-02
-7.934199999999999586e-02
-6.778499999999999803e-02
-4.657800000000000135e-02
-2.120000000000000009e-02
2.911700000000000139e-03
2.053900000000000170e-02
2.672000000000000069e-02
2.132399999999999921e-02
5.475800000000000285e-03
-1.761800000000000171e-02
-4.380599999999999772e-02
-6.711599999999999511e-02
-8.258999999999999675e-02
-8.684500000000000552e-02
-7.696699999999999375e-02
-5.733300000000000202e-02
-3.247699999999999892e-02
-7.913699999999999207e-03
9.677699999999999150e-03
1.842600000000000141e-02
1.689999999999999836e-02
5.677399999999999981e-03
-1.276000000000000051e-02
-3.482799999999999785e-02
-5.621299999999999908e-02
-7.277899999999999647e-02
-8.108899999999999442e-02
-7.990800000000000680e-02
-6.953900000000000359e-02
-5.203100000000000086e-02
-3.015100000000000072e-02
-9.086500000000000826e-03
6.750199999999999603e-03
1.398699999999999943e-02
9.913099999999999343e-03
-3.266600000000000146e-03
-2.257699999999999985e-02
-4.379899999999999766e-02
-6.219899999999999735e-02
-7.391499999999999460e-02
-7.624699999999999533e-02
-6.837000000000000022e-02
-5.034700000000000286e-02
-2.724400000000000086e-02
-4.041699999999999633e-03
1.421099999999999967e-02
2.237700000000000106e-02
1.992999999999999980e-02
7.358199999999999637e-03
-1.287100000000000050e-02
-3.708000000000000185e-02
-6.016300000000000120e-02
-7.747800000000000520e-02
-8.552300000000000180e-02
-8.157899999999999874e-02
-6.789299999999999502e-02
-4.758099999999999830e-02
-2.504299999999999929e-02
-5.202700000000000206e-03
7.893499999999999475e-03
1.141099999999999927e-02
4.449299999999999783e-03
-1.289799999999999974e-02
-3.561199999999999782e-02
-5.867100000000000093e-02
-7.696100000000000163e-02
-8.538999999999999369e-02
-8.322200000000000431e-02
-7.090399999999999481e-02
-5.095399999999999929e-02
-2.676900000000000113e-02
-4.325200000000000398e-03
1.136099999999999957e-02
1.662200000000000136e-02
8.249700000000000435e-03
-1.003800000000000005e-02
-3.415399999999999686e-02
-5.881900000000000323e-02
-7.779099999999999904e-02
-8.816200000000000425e-02
-8.782900000000000429e-02
-7.679099999999999815e-02
-5.653600000000000292e-02
-3.182600000000000012e-02
-7.713600000000000144e-03
1.086799999999999919e-02
1.942699999999999982e-02
1.706299999999999831e-02
4.344100000000000045e-03
-1.611900000000000138e-02
-4.088699999999999973e-02
-6.393899999999999584e-02
-8.024000000000000576e-02
-8.610900000000000498e-02
-7.831399999999999473e-02
-6.051100000000000229e-02
-3.671399999999999664e-02
-1.211300000000000050e-02
7.137499999999999747e-03
1.816999999999999865e-02
1.888400000000000148e-02
9.225399999999999920e-03
-9.322199999999999237e-03
-3.235299999999999981e-02
-5.506699999999999789e-02
-7.274400000000000310e-02
-8.107599999999999529e-02
-7.910300000000000664e-02
-6.728199999999999459e-02
-4.802300000000000318e-02
-2.448799999999999935e-02
-2.507199999999999793e-03
1.307499999999999982e-02
1.869399999999999881e-02
1.125499999999999938e-02
-5.816199999999999669e-03
-2.868700000000000069e-02
-5.235900000000000276e-02
-7.097599999999999743e-02
-8.155500000000000249e-02
-8.196399999999999519e-02
-7.209400000000000530e-02
-5.297799999999999732e-02
-2.961199999999999943e-02
-6.943900000000000246e-03
1.028100000000000021e-02
1.715799999999999964e-02
1.413999999999999979e-02
2.312300000000000206e-03
-1.557700000000000057e-02
-3.521799999999999931e-02
-5.333299999999999846e-02
-6.652900000000000480e-02
-7.242999999999999439e-02
-6.998100000000000154e-02
-6.004400000000000015e-02
-4.481399999999999967e-02
-2.754099999999999951e-02
-1.131899999999999920e-02
-5.316799999999999781e-04
2.051499999999999938e-03
-4.682099999999999804e-03
-2.137100000000000111e-02
-4.287200000000000039e-02
-6.439400000000000679e-02
-8.102199999999999680e-02
-8.771600000000000230e-02
-8.398600000000000509e-02
-7.036299999999999499e-02
-4.938800000000000134e-02
-2.445100000000000051e-02
-1.421799999999999974e-03
1.477000000000000014e-02
2.052500000000000158e-02
1.274499999999999938e-02
-5.010599999999999603e-03
-2.875399999999999831e-02
-5.331099999999999728e-02
-7.269299999999999373e-02
-8.372300000000000575e-02
-8.418899999999999995e-02
-7.400400000000000034e-02
-5.425300000000000261e-02
-3.026799999999999977e-02
-7.294199999999999816e-03
9.654499999999999887e-03
1.557300000000000004e-02
1.077200000000000032e-02
-3.548599999999999845e-03
-2.431799999999999934e-02
-4.707800000000000179e-02
-6.743899999999999895e-02
-8.131299999999999639e-02
-8.588899999999999313e-02
-7.954700000000000659e-02
-6.435200000000000642e-02
-4.348799999999999888e-02
-2.126899999999999971e-02
-2.145799999999999791e-03
9.613800000000000470e-03
1.128099999999999936e-02
2.115099999999999966e-03
-1.770199999999999899e-02
-4.268899999999999778e-02
-6.748200000000000032e-02
-8.667300000000000004e-02
-9.503899999999999848e-02
-9.167599999999999361e-02
-7.710500000000000687e-02
-5.410500000000000032e-02
-2.612000000000000086e-02
-2.366600000000000008e-04
1.785199999999999981e-02
2.402800000000000075e-02
1.426400000000000064e-02
-6.343999999999999813e-03
-3.285199999999999926e-02
-5.918500000000000150e-02
-7.769399999999999917e-02
-8.680000000000000215e-02
-8.511399999999999522e-02
-7.340499999999999803e-02
-5.448299999999999671e-02
-3.214700000000000196e-02
-1.092300000000000042e-02
4.948199999999999821e-03
1.185800000000000048e-02
9.053300000000000236e-03
-2.822199999999999969e-03
-2.141099999999999948e-02
-4.324000000000000066e-02
-6.387900000000000522e-02
-7.922999999999999488e-02
-8.617700000000000360e-02
-8.277400000000000035e-02
-7.007399999999999740e-02
-5.050299999999999928e-02
-2.785500000000000129e-02
-5.825099999999999723e-03
1.010699999999999966e-02
1.632499999999999923e-02
1.115000000000000019e-02
-6.842199999999999671e-03
-3.128800000000000331e-02
-5.652399999999999786e-02
-7.673099999999999365e-02
-8.520199999999999996e-02
-8.259900000000000575e-02
-6.986299999999999455e-02
-4.995800000000000241e-02
-2.772499999999999964e-02
-7.070100000000000169e-03
7.915300000000000114e-03
1.427800000000000076e-02
1.043600000000000083e-02
-2.458399999999999908e-03
-2.181299999999999906e-02
-4.376800000000000135e-02
-6.425100000000000255e-02
-7.864300000000000457e-02
-8.376000000000000112e-02
-7.821599999999999386e-02
-6.153700000000000142e-02
-3.851099999999999662e-02
-1.406800000000000064e-02
6.495100000000000179e-03
1.814699999999999994e-02
1.871199999999999947e-02
7.731299999999999978e-03
-1.290999999999999960e-02
-4.089899999999999786e-02
-6.849399999999999933e-02
-8.950299999999999923e-02
-9.908500000000000640e-02
-9.197299999999999920e-02
-7.337000000000000466e-02
-4.803000000000000325e-02
-2.199999999999999872e-02
-3.272600000000000075e-03
6.760699999999999696e-03
6.582900000000000036e-03
-3.229999999999999798e-03
-1.978699999999999903e-02
-4.005999999999999839e-02
-5.989099999999999979e-02
-7.524100000000000232e-02
-8.305200000000000082e-02
-8.142800000000000038e-02
-7.039399999999999824e-02
-5.183999999999999719e-02
-2.794800000000000062e-02
-5.127399999999999840e-03
1.156000000000000083e-02
1.823299999999999921e-02
1.109399999999999969e-02
-6.054099999999999759e-03
-2.931699999999999931e-02
-5.360399999999999887e-02
-7.250800000000000300e-02
-8.371399999999999675e-02
-8.525299999999999545e-02
-7.704199999999999937e-02
-6.078700000000000075e-02
-3.984399999999999747e-02
-1.839100000000000110e-02
-6.934000000000000493e-04
9.755800000000000236e-03
1.070800000000000050e-02
1.780600000000000021e-03
-1.546200000000000005e-02
-3.902599999999999819e-02
-6.250799999999999412e-02
-8.068200000000000371e-02
-8.938000000000000111e-02
-8.462400000000000477e-02
-6.958599999999999508e-02
-4.782100000000000239e-02
-2.429800000000000015e-02
-4.792099999999999659e-03
6.837700000000000375e-03
7.846699999999999856e-03
-2.343599999999999937e-03
-2.319299999999999834e-02
-4.902399999999999813e-02
-7.423299999999999343e-02
-9.327199999999999380e-02
-1.005899999999999989e-01
-9.596799999999999775e-02
-8.031099999999999350e-02
-5.673099999999999671e-02
-2.948100000000000026e-02
-4.578600000000000378e-03
1.278299999999999922e-02
1.889800000000000160e-02
1.088500000000000058e-02
-7.815199999999999578e-03
-3.304599999999999899e-02
-5.936500000000000110e-02
-8.065899999999999459e-02
-9.310999999999999832e-02
-9.414400000000000546e-02
-8.347799999999999665e-02
-6.190699999999999675e-02
-3.549999999999999684e-02
-1.004999999999999991e-02
8.895800000000000582e-03
1.556699999999999924e-02
1.071000000000000077e-02
-4.218900000000000254e-03
-2.578599999999999989e-02
-4.891299999999999815e-02
-6.933499999999999386e-02
-8.294100000000000084e-02
-8.699400000000000188e-02
-7.991600000000000092e-02
-6.404899999999999483e-02
-4.270600000000000090e-02
-2.022200000000000039e-02
-1.461400000000000069e-03
1.036300000000000068e-02
1.299600000000000061e-02
5.930500000000000008e-03
-9.872799999999999285e-03
-3.087200000000000014e-02
-5.288600000000000245e-02
-7.152400000000000424e-02
-8.311200000000000532e-02
-8.513700000000000434e-02
-7.702599999999999725e-02
-6.026399999999999813e-02
-3.637399999999999661e-02
-1.280500000000000041e-02
4.728200000000000111e-03
1.175000000000000003e-02
3.355499999999999976e-03
-1.548599999999999977e-02
-4.024199999999999999e-02
-6.515400000000000358e-02
-8.282799999999999885e-02
-9.161900000000000599e-02
-9.003500000000000392e-02
-7.869199999999999806e-02
-5.996499999999999747e-02
-3.799899999999999806e-02
-1.738699999999999968e-02
-2.390399999999999990e-03
3.186200000000000143e-03
-8.055700000000000274e-04
-1.333999999999999943e-02
-3.171999999999999820e-02
-5.229500000000000121e-02
-7.059200000000000197e-02
-8.273899999999999311e-02
-8.608200000000000573e-02
-7.871100000000000319e-02
-6.332500000000000628e-02
-4.320700000000000235e-02
-2.256500000000000172e-02
-6.220999999999999967e-03
3.185599999999999803e-03
3.799700000000000039e-03
-4.552200000000000170e-03
-2.052100000000000105e-02
-4.082500000000000018e-02
-6.149099999999999705e-02
-7.839999999999999747e-02
-8.834799999999999598e-02
-8.874300000000000244e-02
-7.906900000000000039e-02
-6.083000000000000212e-02
-3.541500000000000203e-02
-1.051999999999999984e-02
8.030900000000000538e-03
1.566800000000000137e-02
7.305299999999999815e-03
-1.191200000000000071e-02
-3.736300000000000038e-02
-6.319600000000000217e-02
-8.167299999999999560e-02
-9.147800000000000376e-02
-9.115600000000000092e-02
-8.127700000000000202e-02
-6.461500000000000576e-02
-4.417800000000000199e-02
-2.403399999999999981e-02
-8.147599999999999634e-03
4.811999999999999871e-04
-7.854100000000000577e-05
-9.874000000000000832e-03
-2.713600000000000040e-02
-4.955299999999999983e-02
-7.128700000000000314e-02
-8.748000000000000220e-02
-9.429300000000000181e-02
-8.846600000000000297e-02
-7.237399999999999389e-02
-4.921600000000000280e-02
-2.365700000000000094e-02
-6.925199999999999629e-04
1.464200000000000050e-02
1.895200000000000010e-02
1.104199999999999973e-02
-9.824499999999999900e-03
-3.673900000000000082e-02
-6.355800000000000338e-02
-8.421299999999999619e-02
-9.156200000000000450e-02
-8.728900000000000547e-02
-7.300199999999999745e-02
-5.223900000000000071e-02
-3.095499999999999988e-02
-1.177100000000000021e-02
1.908900000000000050e-03
7.788100000000000057e-03
5.527400000000000022e-03
-4.999100000000000245e-03
-2.191399999999999945e-02
-4.214299999999999990e-02
-6.275500000000000522e-02
-7.863399999999999557e-02
-8.627799999999999359e-02
-8.372200000000000475e-02
-6.988099999999999867e-02
-4.872499999999999748e-02
-2.464799999999999977e-02
-2.751899999999999832e-03
1.255000000000000039e-02
1.721500000000000113e-02
9.645900000000000654e-03
-9.176999999999999394e-03
-3.875699999999999978e-02
-6.892399999999999916e-02
-9.215500000000000080e-02
-1.023799999999999988e-01
-9.196699999999999320e-02
-6.872499999999999443e-02
-3.885299999999999865e-02
-9.915600000000000108e-03
7.501200000000000402e-03
1.380499999999999956e-02
8.391400000000000248e-03
-6.965899999999999696e-03
-2.730499999999999941e-02
-5.022000000000000075e-02
-7.160099999999999798e-02
-8.773300000000000542e-02
-9.622200000000000197e-02
-9.527599999999999958e-02
-8.512300000000000422e-02
-6.767299999999999705e-02
-4.551000000000000184e-02
-2.382700000000000096e-02
-7.096100000000000151e-03
1.119200000000000099e-03
-1.689600000000000086e-03
-1.445199999999999957e-02
-3.470600000000000074e-02
-5.843700000000000283e-02
-8.167299999999999560e-02
-9.839000000000000523e-02
-1.045600000000000002e-01
-9.825899999999999912e-02
-7.773800000000000154e-02
-5.011700000000000182e-02
-2.168600000000000042e-02
1.059800000000000065e-03
1.069499999999999965e-02
7.732600000000000064e-03
-6.905099999999999953e-03
-3.000099999999999989e-02
-5.639799999999999675e-02
-8.133600000000000552e-02
-1.000400000000000039e-01
-1.090499999999999942e-01
-1.059100000000000041e-01
-9.279900000000000648e-02
-7.287699999999999734e-02
-5.052800000000000347e-02
-3.077099999999999974e-02
-1.718700000000000089e-02
-1.234200000000000054e-02
-1.696100000000000038e-02
-3.065500000000000169e-02
-4.906499999999999750e-02
-6.767900000000000305e-02
-8.193200000000000482e-02
-8.757299999999999807e-02
-8.361100000000000476e-02
-7.045099999999999973e-02
-5.045499999999999985e-02
-2.629000000000000087e-02
-4.488599999999999708e-03
9.998699999999999255e-03
1.376199999999999993e-02
3.127000000000000005e-03
-1.601299999999999946e-02
-3.842799999999999688e-02
-5.809399999999999981e-02
-6.714699999999999835e-02
-6.563099999999999490e-02
-5.322699999999999654e-02
-3.158199999999999896e-02
-4.919200000000000308e-03
2.437699999999999936e-02
5.251200000000000312e-02
7.591100000000000625e-02
9.217000000000000193e-02
9.882399999999999518e-02
9.527199999999999558e-02
8.242499999999999827e-02
6.202699999999999880e-02
3.815999999999999948e-02
1.471399999999999965e-02
-4.803100000000000251e-03
-1.779599999999999932e-02
-2.350500000000000159e-02
-2.268299999999999830e-02
-1.758499999999999994e-02
-9.889200000000000768e-03
-5.858600000000000266e-03
-9.429500000000000381e-03
-2.278799999999999923e-02
-4.900600000000000095e-02
-8.007899999999999741e-02
-1.098299999999999971e-01
-1.321100000000000052e-01
-1.387500000000000122e-01
-1.332200000000000051e-01
-1.179599999999999954e-01
-9.721000000000000474e-02
-7.821799999999999586e-02
-6.219100000000000322e-02
-5.179500000000000076e-02
-4.858799999999999925e-02
-5.140900000000000331e-02
-6.178700000000000164e-02
-7.848499999999999921e-02
-9.906800000000000328e-02
-1.223400000000000043e-01
-1.411900000000000099e-01
-1.512999999999999901e-01
-1.500499999999999889e-01
-1.341499999999999915e-01
-1.107999999999999957e-01
-8.581999999999999351e-02
-6.535599999999999743e-02
-5.664799999999999697e-02
-5.911000000000000282e-02
-7.189399999999999957e-02
-9.196300000000000308e-02
-1.151999999999999968e-01
-1.360000000000000098e-01
-1.497100000000000097e-01
-1.533599999999999963e-01
-1.441500000000000004e-01
-1.273499999999999910e-01
-1.077599999999999947e-01
-9.072900000000000409e-02
-8.282000000000000473e-02
-8.332299999999999429e-02
-9.135400000000000464e-02
-1.039100000000000024e-01
-1.160599999999999965e-01
-1.230500000000000066e-01
-1.198400000000000021e-01
-1.024000000000000049e-01
-6.780600000000000516e-02
-1.687900000000000164e-02
4.799500000000000294e-02
1.226000000000000006e-01
2.023899999999999866e-01
2.801500000000000101e-01
3.500300000000000078e-01
4.075799999999999979e-01
4.458400000000000141e-01
4.711899999999999977e-01
4.863899999999999890e-01
4.935300000000000242e-01
5.020900000000000363e-01
4.959799999999999764e-01
4.682399999999999896e-01
4.145599999999999841e-01
3.222099999999999964e-01
2.179000000000000103e-01
1.177699999999999997e-01
3.654799999999999716e-02
-6.844499999999999673e-04
-1.587999999999999828e-02
-2.042700000000000071e-02
-2.674699999999999994e-02
-5.882400000000000129e-02
-9.763700000000000156e-02
-1.344899999999999984e-01
-1.594299999999999884e-01
-1.540499999999999925e-01
-1.314400000000000013e-01
-9.822500000000000675e-02
-6.340400000000000202e-02
-4.094600000000000323e-02
-3.035799999999999957e-02
-3.333400000000000252e-02
-4.870900000000000230e-02
-7.275399999999999923e-02
-1.004499999999999976e-01
-1.260600000000000054e-01
-1.444699999999999873e-01
-1.505499999999999894e-01
-1.455799999999999872e-01
-1.313699999999999868e-01
-1.113800000000000068e-01
-9.156899999999999762e-02
-7.347499999999999865e-02
-5.983399999999999830e-02
-5.254799999999999749e-02
-5.060599999999999821e-02
-5.679300000000000320e-02
-7.060400000000000009e-02
-8.999500000000000555e-02
-1.146199999999999997e-01
-1.353499999999999981e-01
-1.465400000000000036e-01
-1.444300000000000028e-01
-1.239399999999999946e-01
-9.411300000000000221e-02
-6.195799999999999919e-02
-3.500799999999999745e-02
-2.273199999999999874e-02
-2.366400000000000101e-02
-3.665299999999999808e-02
-5.804100000000000231e-02
-8.183100000000000096e-02
-1.034500000000000003e-01
-1.181500000000000050e-01
-1.227099999999999996e-01
-1.149499999999999966e-01
-9.793300000000000616e-02
-7.552300000000000679e-02
-5.264499999999999735e-02
-3.498600000000000321e-02
-2.534399999999999847e-02
-2.564299999999999913e-02
-3.582199999999999968e-02
-5.414999999999999675e-02
-7.653600000000000680e-02
-9.829899999999999749e-02
-1.147799999999999931e-01
-1.221399999999999986e-01
-1.184999999999999942e-01
-1.039599999999999969e-01
-8.076899999999999358e-02
-5.142700000000000049e-02
-2.361399999999999957e-02
-3.298699999999999896e-03
4.998100000000000112e-03
-3.185900000000000190e-03
-2.304000000000000145e-02
-4.973899999999999849e-02
-7.708700000000000274e-02
-9.758200000000000207e-02
-1.082999999999999935e-01
-1.070500000000000063e-01
-9.404200000000000059e-02
-7.114700000000000191e-02
-4.387100000000000027e-02
-1.789299999999999918e-02
1.410299999999999965e-03
9.004899999999999710e-03
4.833099999999999896e-03
-9.855700000000000224e-03
-3.170900000000000107e-02
-5.630799999999999694e-02
-7.784299999999999553e-02
-9.142100000000000226e-02
-9.374599999999999600e-02
-8.210499999999999743e-02
-6.074299999999999838e-02
-3.414899999999999880e-02
-7.782700000000000035e-03
1.175900000000000035e-02
2.257899999999999838e-02
2.322400000000000159e-02
1.422200000000000027e-02
-1.912199999999999967e-03
-2.183900000000000077e-02
-4.135699999999999793e-02
-5.637799999999999756e-02
-6.369800000000000462e-02
-6.155700000000000061e-02
-5.000899999999999790e-02
-3.094900000000000082e-02
-6.747600000000000299e-03
1.654200000000000115e-02
3.397100000000000120e-02
4.167900000000000077e-02
3.626100000000000156e-02
2.050499999999999892e-02
-2.198799999999999887e-03
-2.709900000000000156e-02
-4.870800000000000129e-02
-6.311100000000000043e-02
-6.748899999999999344e-02
-6.107200000000000129e-02
-4.401700000000000057e-02
-2.181699999999999959e-02
2.166000000000000065e-04
1.678999999999999937e-02
2.226699999999999860e-02
1.683799999999999880e-02
1.371899999999999899e-03
-2.134199999999999986e-02
-4.685899999999999788e-02
-7.111399999999999666e-02
-8.999400000000000455e-02
-1.004499999999999976e-01
-1.006100000000000050e-01
-9.162299999999999611e-02
-7.588999999999999913e-02
-5.705699999999999661e-02
-3.892999999999999933e-02
-2.595899999999999944e-02
-2.116600000000000079e-02
-2.584499999999999992e-02
-4.070900000000000213e-02
-6.074299999999999838e-02
-8.120299999999999740e-02
-9.719600000000000461e-02
-1.035200000000000009e-01
-9.993499999999999606e-02
-8.702000000000000013e-02
