5.123400000000000176e-02
3.881899999999999934e-02
2.723400000000000126e-02
1.726799999999999863e-02
9.619700000000000126e-03
4.846099999999999887e-03
3.332900000000000185e-03
5.264999999999999715e-03
1.061100000000000064e-02
2.182900000000000118e-02
3.539500000000000285e-02
5.032600000000000268e-02
6.554500000000000604e-02
7.996200000000000530e-02
9.254500000000000226e-02
1.023899999999999949e-01
1.087899999999999978e-01
1.069399999999999934e-01
1.015599999999999975e-01
9.329700000000000493e-02
8.296000000000000596e-02
7.148599999999999399e-02
5.985599999999999948e-02
4.901599999999999707e-02
3.981099999999999917e-02
3.726299999999999751e-02
3.689900000000000124e-02
3.839999999999999664e-02
4.128699999999999731e-02
4.497400000000000009e-02
4.881400000000000322e-02
5.216200000000000003e-02
5.442999999999999922e-02
5.186199999999999838e-02
4.785400000000000070e-02
4.265999999999999653e-02
3.664800000000000002e-02
3.027799999999999936e-02
2.406399999999999859e-02
1.853700000000000139e-02
1.420399999999999961e-02
1.326300000000000048e-02
1.406899999999999991e-02
1.664200000000000054e-02
2.090600000000000097e-02
2.669799999999999951e-02
3.377999999999999753e-02
4.185099999999999931e-02
5.056900000000000284e-02
5.920399999999999968e-02
6.780999999999999528e-02
7.607800000000000673e-02
8.372799999999999687e-02
9.051499999999999824e-02
9.624699999999999922e-02
1.007900000000000046e-01
1.040599999999999997e-01
1.051300000000000012e-01
1.050900000000000029e-01
1.041699999999999987e-01
1.025999999999999968e-01
1.006399999999999934e-01
9.851999999999999647e-02
9.643699999999999495e-02
9.453300000000000591e-02
9.506199999999999373e-02
9.557200000000000417e-02
9.573199999999999765e-02
9.520399999999999696e-02
9.367100000000000426e-02
9.087599999999999845e-02
8.665100000000000580e-02
8.094300000000000106e-02
7.040200000000000624e-02
5.913600000000000106e-02
4.792199999999999932e-02
3.757300000000000223e-02
2.888100000000000042e-02
2.255100000000000160e-02
1.914499999999999882e-02
1.903499999999999984e-02
2.649100000000000066e-02
3.672399999999999970e-02
4.886499999999999871e-02
6.190099999999999769e-02
7.475199999999999900e-02
8.633799999999999808e-02
9.566399999999999904e-02
1.018899999999999945e-01
1.005100000000000021e-01
9.555500000000000105e-02
8.742199999999999971e-02
7.671100000000000141e-02
6.418500000000000594e-02
5.071200000000000013e-02
3.720500000000000196e-02
2.455699999999999897e-02
1.616000000000000075e-02
9.772799999999999890e-03
5.600199999999999623e-03
3.708299999999999878e-03
4.031400000000000088e-03
6.386799999999999769e-03
1.049500000000000086e-02
1.600400000000000086e-02
2.164400000000000004e-02
2.800100000000000158e-02
3.477700000000000236e-02
4.168000000000000177e-02
4.844799999999999801e-02
5.484900000000000192e-02
6.069700000000000095e-02
6.585599999999999787e-02
6.941400000000000348e-02
7.226399999999999491e-02
7.452100000000000390e-02
7.631999999999999895e-02
7.779700000000000504e-02
7.907200000000000339e-02
8.023299999999999876e-02
8.132399999999999352e-02
8.450000000000000566e-02
8.723999999999999810e-02
8.915299999999999614e-02
8.985600000000000531e-02
8.901100000000000678e-02
8.635600000000000220e-02
8.174099999999999422e-02
7.515199999999999658e-02
6.368999999999999662e-02
5.109699999999999659e-02
3.819800000000000278e-02
2.587599999999999970e-02
1.502099999999999963e-02
6.464000000000000128e-03
9.193199999999999462e-04
-1.066799999999999910e-03
3.667300000000000074e-03
1.200000000000000025e-02
2.341999999999999985e-02
3.722899999999999820e-02
5.258800000000000280e-02
6.856199999999999795e-02
8.418699999999999795e-02
9.851999999999999647e-02
1.092599999999999960e-01
1.173199999999999937e-01
1.223199999999999982e-01
1.240399999999999975e-01
1.224500000000000033e-01
1.176699999999999968e-01
1.100300000000000028e-01
9.996900000000000230e-02
8.755699999999999594e-02
7.403200000000000058e-02
6.018799999999999845e-02
4.682700000000000057e-02
3.471500000000000280e-02
2.453699999999999978e-02
1.685700000000000046e-02
1.209000000000000005e-02
1.225500000000000027e-02
1.537400000000000051e-02
2.107900000000000051e-02
2.885499999999999871e-02
3.808399999999999980e-02
4.808199999999999974e-02
5.814500000000000224e-02
6.759500000000000230e-02
7.379700000000000149e-02
7.854400000000000270e-02
8.170700000000000185e-02
8.325699999999999767e-02
8.325699999999999767e-02
8.184400000000000008e-02
7.921200000000000463e-02
7.559200000000000641e-02
7.300099999999999645e-02
6.966999999999999582e-02
6.560699999999999865e-02
6.083199999999999719e-02
5.538599999999999773e-02
4.934100000000000291e-02
4.280899999999999983e-02
3.594499999999999779e-02
2.707400000000000084e-02
1.857100000000000070e-02
1.095299999999999919e-02
4.717100000000000112e-03
3.073500000000000168e-04
-1.916500000000000018e-03
-1.708899999999999959e-03
1.038400000000000087e-03
8.381200000000000108e-03
1.773500000000000076e-02
2.848600000000000090e-02
3.992899999999999922e-02
5.131700000000000150e-02
6.190199999999999869e-02
7.098899999999999655e-02
7.797500000000000264e-02
8.048099999999999699e-02
8.037600000000000300e-02
7.777399999999999591e-02
7.293600000000000083e-02
6.625100000000000433e-02
5.820499999999999979e-02
4.935300000000000104e-02
4.028199999999999836e-02
3.273199999999999721e-02
2.593600000000000072e-02
2.023399999999999851e-02
1.590600000000000000e-02
1.315999999999999982e-02
1.212599999999999963e-02
1.285799999999999964e-02
1.532999999999999988e-02
1.882500000000000145e-02
2.389000000000000151e-02
3.038400000000000128e-02
3.810499999999999998e-02
4.679300000000000126e-02
5.614199999999999746e-02
6.580600000000000338e-02
7.541100000000000581e-02
8.516400000000000359e-02
9.400500000000000522e-02
1.014899999999999969e-01
1.072199999999999959e-01
1.108699999999999963e-01
1.121899999999999981e-01
1.110600000000000059e-01
1.074399999999999938e-01
1.008700000000000013e-01
9.221600000000000630e-02
8.188900000000000345e-02
7.037999999999999812e-02
5.825199999999999823e-02
4.610199999999999715e-02
3.453799999999999926e-02
2.415099999999999886e-02
1.521499999999999936e-02
8.482599999999999862e-03
4.349300000000000388e-03
3.083499999999999869e-03
4.808800000000000227e-03
9.492600000000000343e-03
1.694100000000000120e-02
2.680300000000000044e-02
4.004200000000000120e-02
5.438699999999999785e-02
6.893799999999999928e-02
8.276600000000000623e-02
9.496899999999999786e-02
1.047300000000000036e-01
1.113500000000000045e-01
1.143099999999999949e-01
1.114900000000000058e-01
1.048800000000000010e-01
9.487299999999999900e-02
8.205700000000000494e-02
6.717399999999999760e-02
5.108200000000000240e-02
3.470499999999999974e-02
1.898299999999999987e-02
5.481399999999999988e-03
-5.754099999999999840e-03
-1.412199999999999914e-02
-1.917100000000000054e-02
-2.062399999999999997e-02
-1.839199999999999863e-02
-1.257899999999999990e-02
-3.479799999999999907e-03
9.381600000000000356e-03
2.431600000000000081e-02
4.045699999999999991e-02
5.687500000000000194e-02
7.262499999999999512e-02
8.680599999999999428e-02
9.860700000000000021e-02
1.073599999999999971e-01
1.109200000000000047e-01
1.108699999999999963e-01
1.073400000000000049e-01
1.006399999999999934e-01
9.126199999999999590e-02
7.981599999999999806e-02
6.701100000000000112e-02
5.360999999999999793e-02
4.142499999999999655e-02
3.000699999999999895e-02
1.989799999999999902e-02
1.156500000000000063e-02
5.377100000000000109e-03
1.598400000000000038e-03
3.755000000000000200e-04
1.737299999999999999e-03
5.243799999999999850e-03
1.110099999999999976e-02
1.905499999999999902e-02
2.876199999999999937e-02
3.979499999999999704e-02
5.166899999999999965e-02
6.385699999999999710e-02
7.581300000000000539e-02
8.731800000000000672e-02
9.748900000000000621e-02
1.058199999999999974e-01
1.118699999999999972e-01
1.153200000000000058e-01
1.159499999999999975e-01
1.136599999999999971e-01
1.085200000000000053e-01
1.000999999999999945e-01
8.941499999999999448e-02
7.697800000000000475e-02
6.339400000000000590e-02
4.932099999999999679e-02
3.544400000000000328e-02
2.243500000000000008e-02
1.092699999999999921e-02
1.706800000000000071e-03
-5.039700000000000256e-03
-9.010400000000000006e-03
-1.003800000000000005e-02
-8.098199999999999843e-03
-3.312299999999999793e-03
4.058100000000000249e-03
1.362299999999999969e-02
2.552300000000000055e-02
3.844299999999999801e-02
5.165100000000000247e-02
6.439999999999999891e-02
7.596700000000000674e-02
8.569400000000000628e-02
9.302499999999999658e-02
9.753499999999999670e-02
9.791800000000000503e-02
9.525699999999999446e-02
8.976299999999999557e-02
8.179699999999999471e-02
7.185199999999999920e-02
6.052099999999999841e-02
4.846199999999999813e-02
3.636899999999999855e-02
2.522699999999999942e-02
1.532999999999999988e-02
7.210699999999999575e-03
1.305100000000000010e-03
-2.070499999999999858e-03
-2.734700000000000065e-03
-6.510799999999999530e-04
4.069200000000000247e-03
1.188600000000000073e-02
2.160799999999999874e-02
3.264800000000000341e-02
4.434599999999999653e-02
5.600800000000000223e-02
6.694400000000000350e-02
7.650700000000000556e-02
8.412999999999999645e-02
8.834400000000000586e-02
8.997800000000000242e-02
8.898699999999999666e-02
8.546700000000000130e-02
7.964300000000000546e-02
7.185700000000000420e-02
6.254099999999999937e-02
5.220000000000000334e-02
4.188100000000000156e-02
3.157499999999999890e-02
2.177199999999999969e-02
1.293399999999999932e-02
5.477199999999999777e-03
-2.483699999999999818e-04
-3.970200000000000118e-03
-5.505799999999999930e-03
-5.047499999999999903e-03
-2.297899999999999856e-03
2.660899999999999897e-03
9.643999999999999795e-03
1.837000000000000091e-02
2.846999999999999878e-02
3.950200000000000239e-02
5.096699999999999842e-02
6.312800000000000356e-02
7.454299999999999815e-02
8.458200000000000440e-02
9.266900000000000137e-02
9.832000000000000461e-02
1.011699999999999960e-01
1.009899999999999964e-01
9.773199999999999943e-02
9.004800000000000304e-02
7.986000000000000043e-02
6.778700000000000003e-02
5.455299999999999733e-02
4.094799999999999829e-02
2.778100000000000014e-02
1.583400000000000085e-02
5.816599999999999895e-03
-4.646799999999999759e-04
-3.932699999999999911e-03
-4.453099999999999767e-03
-2.048799999999999927e-03
3.105399999999999914e-03
1.069600000000000065e-02
2.029100000000000001e-02
3.136200000000000099e-02
4.303400000000000281e-02
5.500800000000000134e-02
6.668699999999999628e-02
7.749599999999999544e-02
8.690699999999999814e-02
9.446799999999999642e-02
9.981900000000000495e-02
1.027200000000000057e-01
1.026799999999999935e-01
1.001200000000000007e-01
9.522300000000000209e-02
8.828300000000000036e-02
7.969400000000000095e-02
6.992600000000000204e-02
5.950500000000000234e-02
4.898299999999999876e-02
3.899099999999999788e-02
2.995799999999999852e-02
2.234799999999999981e-02
1.655099999999999974e-02
1.286699999999999997e-02
1.148599999999999968e-02
1.248400000000000030e-02
1.581499999999999920e-02
2.172500000000000125e-02
2.946800000000000114e-02
3.861499999999999655e-02
4.865799999999999986e-02
5.904600000000000126e-02
6.920600000000000362e-02
7.857599999999999307e-02
8.663200000000000067e-02
9.256899999999999851e-02
9.641500000000000070e-02
9.795199999999999740e-02
9.707200000000000550e-02
9.378599999999999437e-02
8.822399999999999687e-02
8.062500000000000222e-02
7.132900000000000351e-02
6.052699999999999747e-02
4.897300000000000264e-02
3.723300000000000221e-02
2.588499999999999829e-02
1.549400000000000083e-02
6.581400000000000271e-03
-3.985700000000000007e-04
-5.084100000000000251e-03
-6.841899999999999718e-03
-5.978800000000000260e-03
-2.544199999999999934e-03
3.289700000000000003e-03
1.123599999999999946e-02
2.091000000000000150e-02
3.184200000000000225e-02
4.350699999999999706e-02
5.542300000000000004e-02
6.693399999999999350e-02
7.747500000000000220e-02
8.652999999999999581e-02
9.365300000000000014e-02
9.848999999999999422e-02
1.008000000000000007e-01
1.004700000000000037e-01
9.696899999999999964e-02
9.106400000000000605e-02
8.309700000000000419e-02
7.351199999999999402e-02
6.283500000000000196e-02
5.164300000000000140e-02
4.053999999999999965e-02
3.011799999999999894e-02
2.122100000000000028e-02
1.401600000000000068e-02
8.877700000000000521e-03
6.077100000000000210e-03
5.773999999999999619e-03
8.007300000000000181e-03
1.269400000000000042e-02
1.963099999999999914e-02
2.862100000000000061e-02
3.912600000000000106e-02
5.064400000000000152e-02
6.261899999999999411e-02
7.446400000000000241e-02
8.559500000000000441e-02
9.544999999999999318e-02
1.035200000000000009e-01
1.095600000000000046e-01
1.130400000000000016e-01
1.137200000000000016e-01
1.115000000000000019e-01
1.064200000000000007e-01
9.865599999999999370e-02
8.853199999999999958e-02
7.649699999999999556e-02
6.191300000000000275e-02
4.678199999999999720e-02
3.196299999999999836e-02
1.830999999999999989e-02
6.622699999999999594e-03
-2.394900000000000154e-03
-8.182299999999999990e-03
-1.035600000000000062e-02
-6.982200000000000038e-03
-9.063799999999999516e-05
9.843499999999999819e-03
2.217600000000000127e-02
3.613399999999999945e-02
5.085900000000000143e-02
6.546200000000000629e-02
7.906699999999999839e-02
8.967899999999999483e-02
9.795900000000000440e-02
1.034999999999999948e-01
1.060600000000000015e-01
1.055200000000000027e-01
1.019599999999999951e-01
9.558099999999999929e-02
8.673500000000000654e-02
7.598499999999999699e-02
6.378100000000000436e-02
5.074300000000000338e-02
3.753000000000000086e-02
2.480699999999999919e-02
1.321499999999999932e-02
3.337399999999999915e-03
-4.324800000000000172e-03
-9.253600000000000714e-03
-1.132799999999999953e-02
-1.043900000000000036e-02
-6.616399999999999712e-03
-3.659199999999999795e-05
8.991400000000000087e-03
2.003699999999999926e-02
3.257000000000000173e-02
4.663599999999999690e-02
6.084200000000000025e-02
7.442799999999999416e-02
8.666699999999999404e-02
9.690100000000000102e-02
1.045800000000000063e-01
1.092999999999999944e-01
1.107999999999999957e-01
1.076099999999999973e-01
1.014499999999999985e-01
9.280399999999999761e-02
8.228100000000000691e-02
7.059400000000000397e-02
5.851200000000000151e-02
4.681400000000000144e-02
3.624200000000000338e-02
2.846800000000000025e-02
2.289599999999999969e-02
1.980900000000000022e-02
1.934699999999999961e-02
2.150200000000000028e-02
2.612599999999999992e-02
3.293399999999999800e-02
4.152700000000000141e-02
5.150400000000000117e-02
6.220400000000000235e-02
7.301299999999999457e-02
8.330999999999999517e-02
9.249999999999999889e-02
1.000500000000000000e-01
1.055100000000000066e-01
1.085399999999999976e-01
1.081300000000000039e-01
1.051399999999999973e-01
9.974399999999999933e-02
9.224799999999999667e-02
8.306800000000000295e-02
7.269799999999999873e-02
6.169000000000000178e-02
5.061999999999999833e-02
4.062600000000000239e-02
3.159599999999999909e-02
2.393699999999999994e-02
1.798699999999999952e-02
1.400200000000000056e-02
1.214400000000000028e-02
1.247999999999999977e-02
1.497599999999999973e-02
1.928399999999999906e-02
2.543700000000000128e-02
3.316700000000000204e-02
4.213200000000000278e-02
5.193500000000000200e-02
6.213799999999999879e-02
7.227899999999999603e-02
8.189299999999999358e-02
9.093600000000000294e-02
9.853900000000000159e-02
1.042899999999999938e-01
1.078699999999999937e-01
1.090499999999999942e-01
1.077000000000000041e-01
1.038499999999999979e-01
9.761899999999999744e-02
8.842700000000000560e-02
7.761700000000000543e-02
6.577399999999999913e-02
5.354400000000000132e-02
4.159800000000000303e-02
3.059800000000000020e-02
2.115799999999999972e-02
1.381199999999999962e-02
9.522499999999999715e-03
7.965899999999999717e-03
9.217299999999999452e-03
1.320499999999999972e-02
1.971499999999999989e-02
2.839799999999999963e-02
3.879099999999999909e-02
5.033300000000000274e-02
6.293300000000000283e-02
7.532800000000000606e-02
8.678400000000000003e-02
9.660699999999999843e-02
1.041799999999999948e-01
1.090099999999999958e-01
1.107400000000000051e-01
1.091899999999999954e-01
1.029499999999999998e-01
9.381399999999999462e-02
8.231399999999999828e-02
6.912699999999999401e-02
5.502100000000000046e-02
4.080899999999999805e-02
2.730899999999999994e-02
1.528900000000000051e-02
6.485900000000000172e-03
2.482799999999999742e-04
-3.156299999999999904e-03
-3.613100000000000166e-03
-1.162499999999999905e-03
4.005400000000000106e-03
1.156300000000000036e-02
2.106399999999999939e-02
3.194199999999999817e-02
4.362599999999999811e-02
5.547400000000000247e-02
6.683899999999999564e-02
7.710100000000000287e-02
8.570200000000000040e-02
9.216699999999999893e-02
9.613599999999999923e-02
9.685299999999999465e-02
9.482799999999999563e-02
9.018800000000000427e-02
8.319200000000000206e-02
7.421899999999999331e-02
6.374599999999999711e-02
5.232300000000000145e-02
4.055000000000000271e-02
2.910300000000000040e-02
1.850500000000000062e-02
9.306899999999999895e-03
1.991199999999999828e-03
-3.051499999999999959e-03
-5.542499999999999684e-03
-5.329999999999999669e-03
-2.397600000000000165e-03
3.555000000000000000e-03
1.179400000000000066e-02
2.188899999999999874e-02
3.330999999999999933e-02
4.546000000000000041e-02
5.769900000000000029e-02
6.938199999999999923e-02
7.988499999999999768e-02
8.856500000000000483e-02
9.503100000000000436e-02
9.891400000000000192e-02
9.997399999999999343e-02
9.810800000000000076e-02
9.336500000000000354e-02
8.593599999999999850e-02
7.615900000000000447e-02
6.359099999999999475e-02
4.982700000000000323e-02
3.563399999999999901e-02
2.181100000000000053e-02
9.143000000000000085e-03
-1.643699999999999892e-03
-9.919300000000000686e-03
-1.518899999999999938e-02
-1.575000000000000011e-02
-1.301199999999999926e-02
-7.185999999999999679e-03
1.353000000000000036e-03
1.209600000000000085e-02
2.442899999999999933e-02
3.766900000000000109e-02
5.110100000000000059e-02
6.297700000000000520e-02
7.381999999999999673e-02
8.316999999999999393e-02
9.064700000000000535e-02
9.596300000000000663e-02
9.892900000000000305e-02
9.945800000000000474e-02
9.756700000000000095e-02
9.397600000000000398e-02
8.819799999999999862e-02
8.043999999999999762e-02
7.099099999999999855e-02
6.021100000000000063e-02
4.852100000000000163e-02
3.638999999999999874e-02
2.431200000000000028e-02
1.191000000000000045e-02
6.857200000000000144e-04
-8.781600000000000517e-03
-1.598300000000000068e-02
-2.050899999999999945e-02
-2.207699999999999940e-02
-2.054900000000000129e-02
-1.594200000000000131e-02
-7.066399999999999591e-03
4.184799999999999805e-03
1.715900000000000064e-02
3.111099999999999977e-02
4.524899999999999756e-02
5.877500000000000085e-02
7.093299999999999605e-02
8.105300000000000005e-02
8.741599999999999371e-02
9.096200000000000119e-02
9.161500000000000199e-02
8.946099999999999886e-02
8.473600000000000576e-02
7.780900000000000316e-02
6.916500000000000425e-02
5.936999999999999916e-02
4.902499999999999913e-02
3.878399999999999903e-02
2.928000000000000047e-02
2.109600000000000017e-02
1.473999999999999963e-02
1.061499999999999944e-02
8.994999999999999524e-03
1.001100000000000080e-02
1.471899999999999945e-02
2.172999999999999932e-02
3.059800000000000020e-02
4.077399999999999775e-02
5.164400000000000240e-02
6.256599999999999662e-02
7.290800000000000058e-02
8.208799999999999430e-02
8.827699999999999436e-02
9.260300000000000475e-02
9.497899999999999399e-02
9.543500000000000594e-02
9.411100000000000021e-02
9.124100000000000266e-02
8.713999999999999524e-02
8.218000000000000305e-02
7.775799999999999379e-02
7.317099999999999993e-02
6.870700000000000418e-02
6.465200000000000113e-02
6.127900000000000014e-02
5.883900000000000241e-02
5.755600000000000299e-02
5.762199999999999961e-02
5.817699999999999955e-02
6.047299999999999898e-02
6.469099999999999850e-02
7.093399999999999705e-02
7.921200000000000463e-02
8.943199999999999761e-02
1.013899999999999940e-01
1.147799999999999931e-01
1.305600000000000094e-01
1.466600000000000126e-01
1.623199999999999921e-01
1.767700000000000105e-01
1.892699999999999938e-01
1.991300000000000014e-01
2.057799999999999907e-01
2.088000000000000134e-01
2.066500000000000004e-01
2.007099999999999995e-01
1.912399999999999933e-01
1.786899999999999877e-01
1.636400000000000077e-01
1.467799999999999938e-01
1.288900000000000046e-01
1.107699999999999935e-01
9.328300000000000480e-02
7.708900000000000474e-02
6.283999999999999309e-02
5.107899999999999940e-02
4.220600000000000046e-02
3.645799999999999735e-02
3.389400000000000052e-02
3.439500000000000196e-02
3.900100000000000094e-02
4.574000000000000288e-02
5.384699999999999903e-02
6.247899999999999981e-02
7.076999999999999957e-02
7.787900000000000378e-02
8.304699999999999582e-02
8.564099999999999491e-02
8.333999999999999742e-02
7.797800000000000564e-02
6.972299999999999331e-02
5.891799999999999815e-02
4.605499999999999872e-02
3.174199999999999938e-02
1.666400000000000173e-02
1.544199999999999913e-03
-1.165000000000000063e-02
-2.367599999999999913e-02
-3.409800000000000331e-02
-4.256100000000000161e-02
-4.880500000000000116e-02
-5.266699999999999854e-02
-5.409300000000000219e-02
-5.312399999999999761e-02
-5.050899999999999834e-02
-4.578100000000000225e-02
-3.916499999999999843e-02
-3.096199999999999994e-02
-2.154000000000000012e-02
-1.131799999999999994e-02
-7.523999999999999655e-04
9.677099999999999244e-03
2.010999999999999940e-02
2.938100000000000087e-02
3.698499999999999704e-02
4.248500000000000193e-02
4.553700000000000109e-02
4.590999999999999942e-02
4.350600000000000300e-02
3.836099999999999927e-02
2.973599999999999854e-02
1.899100000000000094e-02
6.682699999999999751e-03
-6.547800000000000321e-03
-2.000700000000000048e-02
-3.298600000000000143e-02
-4.479899999999999854e-02
-5.481799999999999867e-02
-6.206699999999999717e-02
-6.663600000000000079e-02
-6.830600000000000560e-02
-6.700499999999999512e-02
-6.281200000000000672e-02
-5.595399999999999680e-02
-4.679400000000000226e-02
-3.581600000000000061e-02
-2.278600000000000070e-02
-9.275099999999999664e-03
3.920700000000000053e-03
1.602200000000000152e-02
2.630800000000000152e-02
3.415699999999999986e-02
3.908799999999999775e-02
4.078299999999999981e-02
3.703100000000000142e-02
3.026099999999999970e-02
2.099300000000000124e-02
9.881700000000000206e-03
-2.331499999999999805e-03
-1.486700000000000001e-02
-2.695699999999999832e-02
-3.789599999999999913e-02
-4.484400000000000192e-02
-4.988000000000000073e-02
-5.297700000000000325e-02
-5.423300000000000343e-02
-5.384900000000000103e-02
-5.210299999999999654e-02
-4.932399999999999979e-02
-4.585600000000000093e-02
-4.409099999999999825e-02
-4.197900000000000242e-02
-3.949400000000000133e-02
-3.657699999999999840e-02
-3.314600000000000185e-02
-2.911000000000000046e-02
-2.437699999999999936e-02
-1.886900000000000036e-02
-1.065699999999999981e-02
-1.834300000000000080e-03
7.369999999999999815e-03
1.674300000000000094e-02
2.611499999999999932e-02
3.537599999999999772e-02
4.449999999999999789e-02
5.355599999999999944e-02
6.061699999999999727e-02
6.833799999999999597e-02
7.734499999999999709e-02
8.828900000000000636e-02
1.018000000000000016e-01
1.184499999999999997e-01
1.386699999999999877e-01
1.627800000000000080e-01
1.932899999999999896e-01
2.273900000000000088e-01
2.644500000000000184e-01
3.037099999999999800e-01
3.442899999999999849e-01
3.852200000000000069e-01
4.254999999999999893e-01
4.641600000000000170e-01
4.971200000000000063e-01
5.271200000000000330e-01
5.538300000000000445e-01
5.769900000000000029e-01
5.964199999999999502e-01
6.119299999999999740e-01
6.233499999999999597e-01
6.304999999999999494e-01
6.380799999999999805e-01
6.403299999999999548e-01
6.364300000000000512e-01
6.256500000000000394e-01
6.074800000000000200e-01
5.816599999999999548e-01
5.482700000000000351e-01
5.077199999999999491e-01
4.534099999999999797e-01
3.949300000000000033e-01
3.347399999999999820e-01
2.753800000000000137e-01
2.193700000000000094e-01
1.690000000000000113e-01
1.262099999999999889e-01
9.248000000000000664e-02
7.789699999999999402e-02
7.225600000000000078e-02
7.400600000000000234e-02
8.117800000000000016e-02
9.153699999999999337e-02
1.027600000000000041e-01
1.125799999999999995e-01
1.190100000000000047e-01
1.118100000000000066e-01
9.965599999999999459e-02
8.304899999999999782e-02
6.291900000000000270e-02
4.051400000000000140e-02
1.729599999999999888e-02
-5.177799999999999764e-03
-2.537999999999999978e-02
-3.624900000000000344e-02
-4.312300000000000161e-02
-4.589900000000000230e-02
-4.472500000000000087e-02
-3.998700000000000171e-02
-3.226600000000000301e-02
-2.229400000000000132e-02
-1.090499999999999976e-02
-1.449800000000000004e-03
8.043299999999999755e-03
1.708199999999999996e-02
2.522699999999999942e-02
3.210199999999999859e-02
3.740799999999999681e-02
4.093200000000000310e-02
4.254399999999999848e-02
4.266799999999999760e-02
4.081900000000000112e-02
3.706099999999999672e-02
3.154200000000000059e-02
2.448399999999999882e-02
1.617400000000000088e-02
6.955700000000000424e-03
-2.785300000000000102e-03
-1.268900000000000063e-02
-2.227300000000000113e-02
-3.111299999999999830e-02
-3.880900000000000322e-02
-4.500099999999999933e-02
-4.938499999999999834e-02
-5.172500000000000014e-02
-5.186400000000000038e-02
-5.022499999999999881e-02
-4.627300000000000163e-02
-4.005800000000000333e-02
-3.173700000000000132e-02
-2.156699999999999937e-02
-9.904200000000000156e-03
2.806100000000000174e-03
1.604300000000000170e-02
3.074400000000000049e-02
4.458999999999999769e-02
5.677800000000000208e-02
6.656299999999999717e-02
7.330699999999999716e-02
7.652200000000000668e-02
7.590099999999999625e-02
7.134799999999999476e-02
6.056600000000000178e-02
4.666900000000000215e-02
3.053300000000000111e-02
1.316999999999999942e-02
-4.335000000000000311e-03
-2.088900000000000132e-02
-3.545700000000000240e-02
-4.712100000000000316e-02
-5.296200000000000213e-02
-5.493900000000000172e-02
-5.305100000000000093e-02
-4.750999999999999668e-02
-3.872300000000000048e-02
-2.726699999999999957e-02
-1.384400000000000040e-02
7.527599999999999960e-04
1.480799999999999998e-02
2.850400000000000156e-02
4.116899999999999726e-02
5.219300000000000328e-02
6.106600000000000222e-02
6.738800000000000345e-02
7.089600000000000068e-02
7.146900000000000475e-02
6.893900000000000028e-02
6.369199999999999862e-02
5.605500000000000066e-02
4.647099999999999842e-02
3.547299999999999759e-02
2.365599999999999994e-02
1.165000000000000063e-02
8.501700000000000272e-05
-1.035999999999999942e-02
-1.923800000000000163e-02
-2.610000000000000167e-02
-3.060399999999999926e-02
-3.253000000000000336e-02
-3.178799999999999681e-02
-2.843100000000000141e-02
-2.264499999999999846e-02
-1.408799999999999983e-02
-3.932500000000000231e-03
7.217699999999999637e-03
1.870499999999999940e-02
2.985499999999999959e-02
4.001500000000000196e-02
4.859100000000000225e-02
5.507700000000000096e-02
5.830300000000000066e-02
5.891899999999999915e-02
5.693399999999999850e-02
5.249600000000000100e-02
4.589000000000000024e-02
3.751499999999999974e-02
2.786500000000000088e-02
1.750300000000000120e-02
6.996500000000000115e-03
-3.011900000000000081e-03
-1.192799999999999937e-02
-1.921199999999999991e-02
-2.440399999999999861e-02
-2.715300000000000005e-02
-2.723400000000000126e-02
-2.456200000000000050e-02
-1.844600000000000059e-02
-9.951599999999999682e-03
4.767700000000000041e-04
1.229099999999999984e-02
2.486800000000000122e-02
3.754199999999999898e-02
4.964299999999999963e-02
6.053100000000000147e-02
6.909200000000000064e-02
7.546100000000000030e-02
7.934099999999999486e-02
8.056299999999999573e-02
7.908999999999999364e-02
7.502100000000000435e-02
6.858499999999999319e-02
6.012900000000000189e-02
4.981499999999999817e-02
3.849600000000000244e-02
2.680000000000000090e-02
1.537200000000000025e-02
4.849400000000000238e-03
-4.174399999999999986e-03
-1.118000000000000070e-02
-1.575100000000000111e-02
-1.705600000000000172e-02
-1.554999999999999959e-02
-1.129100000000000069e-02
-4.473099999999999819e-03
4.581100000000000276e-03
1.544000000000000060e-02
2.758499999999999841e-02
4.043399999999999772e-02
5.338400000000000090e-02
6.580500000000000238e-02
7.709900000000000087e-02
8.672199999999999354e-02
9.421100000000000307e-02
9.920700000000000351e-02
1.014700000000000046e-01
1.009099999999999997e-01
9.700899999999999801e-02
9.058099999999999485e-02
8.201999999999999569e-02
7.182199999999999696e-02
6.057200000000000084e-02
4.890200000000000102e-02
3.746900000000000230e-02
2.691599999999999895e-02
1.807500000000000079e-02
1.120200000000000015e-02
6.695600000000000336e-03
4.838000000000000286e-03
5.783199999999999626e-03
9.548299999999999149e-03
1.601100000000000093e-02
2.491600000000000065e-02
3.629000000000000281e-02
4.918899999999999662e-02
6.299100000000000532e-02
7.702499999999999625e-02
9.060500000000000498e-02
1.030599999999999988e-01
1.137800000000000061e-01
1.222400000000000014e-01
1.276400000000000035e-01
1.301400000000000057e-01
1.296299999999999952e-01
1.261799999999999866e-01
1.199899999999999994e-01
1.114099999999999951e-01
1.009099999999999997e-01
8.903800000000000603e-02
7.582899999999999363e-02
6.265099999999999836e-02
5.027000000000000218e-02
3.941999999999999671e-02
3.075500000000000109e-02
2.481399999999999925e-02
2.199100000000000013e-02
2.250900000000000123e-02
2.780600000000000085e-02
3.613600000000000145e-02
4.698200000000000293e-02
5.968799999999999800e-02
7.349799999999999389e-02
8.760099999999999831e-02
1.011699999999999960e-01
1.134399999999999992e-01
1.224900000000000017e-01
1.290999999999999925e-01
1.330000000000000071e-01
1.340300000000000102e-01
1.321900000000000019e-01
1.276400000000000035e-01
1.206300000000000011e-01
1.115499999999999964e-01
1.011999999999999983e-01
8.973399999999999432e-02
7.769700000000000217e-02
6.563700000000000090e-02
5.410199999999999732e-02
4.360599999999999893e-02
3.460799999999999987e-02
2.749100000000000155e-02
2.261200000000000015e-02
2.008300000000000016e-02
1.997200000000000017e-02
2.222999999999999976e-02
2.669699999999999851e-02
3.310799999999999854e-02
4.110699999999999771e-02
5.026100000000000012e-02
6.025099999999999900e-02
7.036599999999999799e-02
8.004899999999999516e-02
8.876399999999999568e-02
9.601600000000000412e-02
1.013799999999999979e-01
1.045200000000000018e-01
1.052000000000000018e-01
1.030699999999999950e-01
9.842099999999999460e-02
9.144099999999999451e-02
8.241700000000000415e-02
7.174600000000000422e-02
5.991099999999999898e-02
4.745599999999999818e-02
3.496699999999999808e-02
2.248599999999999904e-02
1.121499999999999928e-02
1.757099999999999938e-03
-5.366199999999999790e-03
-9.749600000000000627e-03
-1.112800000000000074e-02
-9.394200000000000120e-03
-4.612800000000000233e-03
4.475200000000000358e-03
1.577800000000000036e-02
2.856200000000000058e-02
4.200700000000000267e-02
5.525599999999999956e-02
6.746199999999999419e-02
7.784399999999999653e-02
8.572799999999999865e-02
8.902699999999999503e-02
8.918199999999999739e-02
8.625199999999999534e-02
8.046499999999999486e-02
7.221199999999999841e-02
6.201399999999999968e-02
5.049300000000000316e-02
3.833899999999999808e-02
2.683299999999999921e-02
1.602599999999999858e-02
6.501299999999999787e-03
-1.222800000000000015e-03
-6.722699999999999856e-03
-9.687299999999999384e-03
-9.933000000000000856e-03
-7.412799999999999771e-03
-1.932499999999999973e-03
5.960700000000000200e-03
1.588099999999999928e-02
2.734100000000000072e-02
3.977800000000000086e-02
5.258000000000000174e-02
6.511599999999999333e-02
7.677000000000000490e-02
8.675700000000000078e-02
9.481599999999999751e-02
1.005700000000000066e-01
1.037399999999999989e-01
1.041699999999999987e-01
1.018499999999999961e-01
9.689200000000000590e-02
8.952799999999999647e-02
7.969700000000000395e-02
6.832599999999999785e-02
5.600200000000000317e-02
4.336099999999999677e-02
3.105199999999999974e-02
1.970500000000000029e-02
9.896099999999999688e-03
2.124599999999999926e-03
-2.768000000000000061e-03
-5.032599999999999921e-03
-4.600800000000000375e-03
-1.540700000000000099e-03
3.947400000000000214e-03
1.154099999999999918e-02
2.081300000000000164e-02
3.125000000000000000e-02
4.249800000000000105e-02
5.370899999999999980e-02
6.424699999999999855e-02
7.350500000000000089e-02
8.093899999999999706e-02
8.609700000000000686e-02
8.863999999999999657e-02
8.836700000000000110e-02
8.450799999999999979e-02
7.796999999999999764e-02
6.908699999999999564e-02
5.831700000000000078e-02
4.621499999999999914e-02
3.340699999999999920e-02
2.055099999999999982e-02
8.311699999999999991e-03
-2.426999999999999904e-03
-1.139100000000000008e-02
-1.813400000000000081e-02
-2.232100000000000056e-02
-2.374100000000000169e-02
-2.231899999999999856e-02
-1.812499999999999875e-02
-1.136500000000000010e-02
-1.833200000000000107e-03
9.405800000000000619e-03
2.173699999999999938e-02
3.448999999999999982e-02
4.697300000000000086e-02
5.850799999999999751e-02
6.847100000000000408e-02
7.632099999999999995e-02
8.096599999999999631e-02
8.287400000000000322e-02
8.198900000000000632e-02
7.839799999999999547e-02
7.232500000000000040e-02
6.412099999999999744e-02
5.424099999999999755e-02
4.322499999999999953e-02
3.159499999999999809e-02
2.004999999999999838e-02
9.217499999999999999e-03
-3.099099999999999923e-04
-8.004199999999999510e-03
-1.342999999999999923e-02
-1.626800000000000121e-02
-1.633099999999999830e-02
-1.300499999999999920e-02
-7.043800000000000235e-03
1.232400000000000032e-03
1.138300000000000076e-02
2.286900000000000044e-02
3.508499999999999813e-02
4.738400000000000251e-02
5.911600000000000188e-02
6.950900000000000134e-02
7.817399999999999349e-02
8.465000000000000302e-02
8.858599999999999808e-02
8.975299999999999945e-02
8.806300000000000239e-02
8.357000000000000539e-02
7.647099999999999731e-02
6.641800000000000481e-02
5.463599999999999707e-02
4.176599999999999757e-02
2.851000000000000062e-02
1.558999999999999969e-02
3.709300000000000010e-03
-6.480299999999999602e-03
-1.441899999999999953e-02
-1.890199999999999866e-02
-2.050599999999999992e-02
-1.919200000000000073e-02
-1.506900000000000080e-02
-8.390699999999999201e-03
4.615500000000000245e-04
1.099900000000000010e-02
2.264899999999999899e-02
3.474300000000000305e-02
4.668900000000000133e-02
5.785400000000000265e-02
6.764000000000000568e-02
7.552100000000000479e-02
8.106299999999999617e-02
8.394999999999999685e-02
8.399900000000000422e-02
8.066500000000000059e-02
7.463200000000000389e-02
6.621499999999999608e-02
5.584900000000000281e-02
4.406999999999999806e-02
3.148399999999999810e-02
1.873800000000000118e-02
6.489100000000000250e-03
-4.534800000000000289e-03
-1.387000000000000038e-02
-2.103199999999999861e-02
-2.563999999999999960e-02
-2.743699999999999958e-02
-2.630700000000000052e-02
-2.227300000000000113e-02
-1.550900000000000022e-02
-5.703399999999999963e-03
6.004500000000000288e-03
1.899299999999999947e-02
3.257399999999999879e-02
4.602599999999999747e-02
5.863600000000000062e-02
6.973500000000000532e-02
7.873099999999999543e-02
8.451999999999999791e-02
8.747099999999999320e-02
8.747099999999999320e-02
8.455600000000000616e-02
7.890800000000000591e-02
7.084699999999999331e-02
6.081099999999999700e-02
4.933699999999999891e-02
3.682699999999999863e-02
2.415799999999999892e-02
1.201799999999999917e-02
1.068200000000000052e-03
-8.088299999999999657e-03
-1.494099999999999942e-02
-1.909800000000000039e-02
-2.030600000000000113e-02
-1.774699999999999889e-02
-1.230299999999999970e-02
-4.286599999999999785e-03
5.856600000000000000e-03
1.757099999999999981e-02
3.022100000000000133e-02
4.312699999999999867e-02
5.559599999999999959e-02
6.671199999999999353e-02
7.615500000000000047e-02
8.343699999999999728e-02
8.817800000000000638e-02
9.012299999999999478e-02
8.916300000000000614e-02
8.533399999999999319e-02
7.882000000000000117e-02
6.931099999999999761e-02
5.797100000000000170e-02
4.543200000000000016e-02
3.239299999999999818e-02
1.957700000000000065e-02
7.696999999999999849e-03
-2.583799999999999812e-03
-1.068799999999999958e-02
-1.543300000000000054e-02
-1.732300000000000159e-02
-1.628299999999999886e-02
-1.239099999999999924e-02
-5.869899999999999944e-03
2.927299999999999867e-03
1.353399999999999916e-02
2.539699999999999944e-02
3.792600000000000138e-02
5.045299999999999785e-02
6.232599999999999946e-02
7.293099999999999583e-02
8.171200000000000685e-02
8.820899999999999574e-02
9.207500000000000406e-02
9.309900000000000120e-02
9.059100000000000485e-02
8.534100000000000019e-02
7.765700000000000380e-02
6.796800000000000064e-02
5.680600000000000233e-02
4.477099999999999830e-02
3.250399999999999817e-02
2.065399999999999875e-02
1.008900000000000075e-02
1.090100000000000097e-03
-5.892900000000000395e-03
-1.051099999999999951e-02
-1.253499999999999927e-02
-1.186500000000000055e-02
-8.538799999999999168e-03
-2.726600000000000031e-03
5.714099999999999735e-03
1.587399999999999922e-02
2.719299999999999842e-02
3.904799999999999938e-02
5.078799999999999981e-02
6.176999999999999852e-02
7.138799999999999313e-02
7.910899999999999876e-02
8.408200000000000396e-02
8.647100000000000619e-02
8.615499999999999547e-02
8.314799999999999969e-02
7.760799999999999643e-02
6.981800000000000506e-02
6.018199999999999938e-02
4.920000000000000068e-02
3.698099999999999998e-02
2.467000000000000096e-02
1.296100000000000030e-02
2.527600000000000072e-03
-6.020199999999999857e-03
-1.216800000000000000e-02
-1.552500000000000061e-02
-1.585200000000000151e-02
-1.200200000000000052e-02
-5.283699999999999682e-03
3.905000000000000051e-03
1.503400000000000049e-02
2.747099999999999889e-02
4.051500000000000240e-02
5.343799999999999939e-02
6.552399999999999891e-02
7.538899999999999768e-02
8.326999999999999680e-02
8.878700000000000481e-02
9.168099999999999861e-02
9.182700000000000584e-02
8.923599999999999588e-02
8.405200000000000171e-02
7.654700000000000393e-02
6.703699999999999937e-02
5.607100000000000278e-02
4.420899999999999830e-02
3.205100000000000310e-02
2.021399999999999933e-02
9.297500000000000209e-03
-1.411600000000000105e-04
-7.617900000000000366e-03
-1.268500000000000009e-02
-1.514000000000000068e-02
-1.484399999999999956e-02
-1.179700000000000019e-02
-6.133000000000000430e-03
1.878700000000000075e-03
1.184699999999999989e-02
2.327500000000000055e-02
3.639300000000000174e-02
4.964999999999999969e-02
6.227699999999999902e-02
7.353200000000000014e-02
8.273700000000000498e-02
8.931899999999999562e-02
9.284499999999999698e-02
9.304800000000000570e-02
8.829099999999999449e-02
8.045499999999999874e-02
7.003700000000000203e-02
5.767800000000000010e-02
4.412200000000000150e-02
3.016999999999999890e-02
1.663900000000000101e-02
4.309799999999999916e-03
-4.828100000000000100e-03
-1.165399999999999943e-02
-1.588600000000000081e-02
-1.738200000000000162e-02
-1.614300000000000110e-02
-1.230299999999999970e-02
-6.119600000000000213e-03
2.043000000000000111e-03
1.115999999999999978e-02
2.138100000000000070e-02
3.223000000000000170e-02
4.321099999999999941e-02
5.382499999999999785e-02
6.359199999999999575e-02
7.207099999999999618e-02
7.887800000000000367e-02
8.414299999999999558e-02
8.714199999999999724e-02
8.768900000000000305e-02
8.571299999999999752e-02
8.126200000000000090e-02
7.450900000000000578e-02
6.574399999999999689e-02
5.536699999999999955e-02
4.276699999999999946e-02
2.976499999999999979e-02
1.711599999999999927e-02
5.572399999999999923e-03
-4.163100000000000307e-03
-1.147699999999999936e-02
-1.587999999999999828e-02
-1.704400000000000012e-02
-1.333100000000000084e-02
-6.472499999999999955e-03
3.111500000000000116e-03
1.485000000000000035e-02
2.805600000000000108e-02
4.196500000000000230e-02
5.578099999999999725e-02
6.872000000000000330e-02
7.910699999999999676e-02
8.738700000000000634e-02
9.316900000000000182e-02
9.619199999999999973e-02
9.634099999999999608e-02
9.364200000000000301e-02
8.826499999999999624e-02
8.050999999999999823e-02
7.083599999999999619e-02
5.969700000000000006e-02
4.766700000000000104e-02
3.536600000000000160e-02
2.342299999999999938e-02
1.245399999999999979e-02
3.028199999999999989e-03
-4.360300000000000113e-03
-9.333499999999999783e-03
-1.159299999999999914e-02
-1.098900000000000050e-02
-7.510400000000000409e-03
-1.291100000000000103e-03
7.395299999999999617e-03
1.814500000000000141e-02
3.044200000000000031e-02
4.455900000000000138e-02
5.883000000000000035e-02
7.244100000000000539e-02
8.459800000000000653e-02
9.457300000000000428e-02
1.017499999999999932e-01
1.056399999999999978e-01
1.059599999999999986e-01
1.010500000000000009e-01
9.276500000000000024e-02
8.161100000000000299e-02
6.824399999999999911e-02
5.343300000000000133e-02
3.802500000000000324e-02
2.288700000000000109e-02
8.864399999999999710e-03
-2.148600000000000076e-03
-1.076700000000000053e-02
-1.661100000000000076e-02
-1.944900000000000101e-02
-1.919900000000000079e-02
-1.593200000000000172e-02
-9.866899999999999629e-03
-1.349200000000000052e-03
8.969700000000000589e-03
2.076799999999999827e-02
3.346099999999999769e-02
4.643100000000000005e-02
5.904899999999999732e-02
7.071199999999999708e-02
8.086500000000000632e-02
8.903099999999999903e-02
9.468300000000000327e-02
9.772200000000000331e-02
9.802800000000000402e-02
9.560899999999999954e-02
9.060300000000000298e-02
8.327299999999999980e-02
7.398899999999999921e-02
6.321499999999999342e-02
5.111099999999999671e-02
3.868599999999999817e-02
2.659100000000000005e-02
1.546299999999999931e-02
5.890099999999999676e-03
-1.620300000000000082e-03
-6.666400000000000277e-03
-8.974700000000000386e-03
-7.693600000000000091e-03
-3.664800000000000176e-03
2.848600000000000177e-03
1.145499999999999990e-02
2.165900000000000117e-02
3.288399999999999657e-02
4.450699999999999795e-02
5.588900000000000118e-02
6.615400000000000447e-02
7.502599999999999547e-02
8.203900000000000081e-02
8.682700000000000140e-02
8.913600000000000689e-02
8.884000000000000230e-02
8.594799999999999662e-02
8.060199999999999310e-02
7.251100000000000600e-02
6.269600000000000173e-02
5.171200000000000102e-02
4.017600000000000338e-02
2.873600000000000113e-02
1.803099999999999842e-02
8.662100000000000702e-03
1.155599999999999900e-03
-3.422699999999999874e-03
-5.498900000000000142e-03
-4.988600000000000152e-03
-1.941900000000000093e-03
3.461899999999999960e-03
1.092399999999999968e-02
2.004500000000000032e-02
3.033900000000000138e-02
4.124400000000000288e-02
5.221800000000000053e-02
6.268799999999999373e-02
7.210400000000000142e-02
7.996699999999999642e-02
8.585299999999999876e-02
8.943900000000000461e-02
9.051299999999999624e-02
8.863899999999999557e-02
8.426599999999999369e-02
7.761700000000000543e-02
6.903099999999999514e-02
5.894599999999999840e-02
4.787700000000000289e-02
3.639400000000000274e-02
2.509099999999999872e-02
1.431400000000000033e-02
4.893299999999999733e-03
-2.640299999999999939e-03
-7.845500000000000043e-03
-1.039600000000000073e-02
-1.009900000000000034e-02
-6.909799999999999796e-03
-9.372700000000000302e-04
8.646300000000000860e-03
2.020500000000000074e-02
3.307500000000000023e-02
4.651600000000000179e-02
5.975500000000000256e-02
7.203099999999999781e-02
8.263399999999999912e-02
9.094900000000000206e-02
9.534700000000000120e-02
9.680400000000000116e-02
9.530800000000000383e-02
9.100500000000000256e-02
8.419000000000000095e-02
7.528300000000000269e-02
6.480900000000000549e-02
5.336599999999999677e-02
4.181800000000000100e-02
3.055300000000000030e-02
2.017000000000000043e-02
1.121600000000000028e-02
4.163000000000000034e-03
-6.206999999999999627e-04
-2.885400000000000204e-03
-2.514000000000000175e-03
1.045099999999999979e-03
6.982999999999999624e-03
1.493700000000000062e-02
2.444199999999999845e-02
3.495299999999999796e-02
4.587900000000000311e-02
5.661399999999999766e-02
6.656499999999999917e-02
7.467699999999999338e-02
8.106399999999999717e-02
8.541999999999999593e-02
8.753900000000000570e-02
8.733200000000000685e-02
8.482399999999999662e-02
8.015200000000000102e-02
7.356000000000000039e-02
6.530299999999999994e-02
5.588400000000000312e-02
4.578600000000000031e-02
3.552600000000000202e-02
2.562700000000000047e-02
1.659700000000000064e-02
8.899900000000000519e-03
2.937500000000000007e-03
-7.770500000000000497e-04
-2.252800000000000115e-03
-1.408100000000000020e-03
1.727100000000000076e-03
7.012000000000000004e-03
1.420199999999999935e-02
2.295799999999999924e-02
3.286300000000000332e-02
4.366199999999999942e-02
5.459599999999999870e-02
6.510699999999999821e-02
7.465499999999999914e-02
8.273999999999999411e-02
8.893099999999999616e-02
9.288499999999999535e-02
9.436700000000000643e-02
9.283700000000000285e-02
8.879700000000000093e-02
8.244700000000000639e-02
7.409799999999999720e-02
6.416499999999999981e-02
5.313799999999999774e-02
4.156599999999999878e-02
3.002600000000000061e-02
1.893999999999999850e-02
9.033100000000000504e-03
8.256700000000000280e-04
-5.241700000000000179e-03
-8.832599999999999479e-03
-9.733600000000000238e-03
-7.866899999999999588e-03
-3.298300000000000103e-03
4.594799999999999579e-03
1.452900000000000025e-02
2.593799999999999925e-02
3.817399999999999960e-02
5.054600000000000065e-02
6.235600000000000170e-02
7.293700000000000183e-02
8.168899999999999773e-02
8.737599999999999534e-02
9.046899999999999387e-02
9.083299999999999708e-02
8.847599999999999909e-02
8.354899999999999827e-02
7.633199999999999708e-02
6.722000000000000197e-02
5.670499999999999846e-02
4.524700000000000250e-02
3.356200000000000155e-02
2.228300000000000072e-02
1.202600000000000023e-02
3.352899999999999804e-03
-3.252000000000000116e-03
-7.409899999999999647e-03
-8.867599999999999788e-03
-6.978700000000000007e-03
-2.383600000000000042e-03
4.669699999999999719e-03
1.380600000000000056e-02
2.453999999999999931e-02
3.630699999999999900e-02
4.848399999999999932e-02
6.042499999999999954e-02
7.152200000000000224e-02
8.115500000000000491e-02
8.879599999999999993e-02
9.401099999999999735e-02
9.648700000000000332e-02
9.604999999999999649e-02
9.267499999999999349e-02
8.648899999999999644e-02
7.677499999999999603e-02
6.507499999999999396e-02
5.205300000000000205e-02
3.844100000000000295e-02
2.500600000000000045e-02
1.249899999999999969e-02
1.620200000000000026e-03
-7.026000000000000127e-03
-1.174599999999999950e-02
-1.359699999999999971e-02
-1.257699999999999964e-02
-8.831200000000000855e-03
-2.645699999999999961e-03
5.576700000000000407e-03
1.533999999999999947e-02
2.608399999999999955e-02
3.650300000000000072e-02
4.681600000000000344e-02
5.654200000000000198e-02
6.523900000000000532e-02
7.252400000000000513e-02
7.808299999999999963e-02
8.168499999999999373e-02
8.319300000000000306e-02
8.295700000000000296e-02
8.058500000000000385e-02
7.617400000000000559e-02
6.991899999999999504e-02
6.210600000000000148e-02
5.310100000000000237e-02
4.333800000000000152e-02
3.330000000000000321e-02
2.257500000000000132e-02
1.272900000000000073e-02
4.383100000000000017e-03
-1.905000000000000009e-03
-5.673400000000000318e-03
-6.586400000000000067e-03
-4.458700000000000337e-03
7.279199999999999560e-04
1.035100000000000083e-02
2.233999999999999875e-02
3.601300000000000334e-02
5.058399999999999702e-02
6.520800000000000207e-02
7.902800000000000102e-02
9.122800000000000353e-02
1.010800000000000032e-01
1.067300000000000054e-01
1.091700000000000031e-01
1.082899999999999974e-01
1.041699999999999987e-01
9.705500000000000238e-02
8.734400000000000497e-02
7.556300000000000516e-02
6.233899999999999858e-02
4.840599999999999764e-02
3.444500000000000339e-02
2.117700000000000138e-02
9.287399999999999475e-03
-6.110999999999999462e-04
-8.011400000000000118e-03
-1.253699999999999953e-02
-1.396299999999999972e-02
-1.145299999999999964e-02
-5.990900000000000392e-03
2.055500000000000035e-03
1.218699999999999992e-02
2.380000000000000171e-02
3.621800000000000019e-02
4.873399999999999954e-02
6.063799999999999746e-02
7.083299999999999319e-02
7.922600000000000475e-02
8.538400000000000156e-02
8.899200000000000166e-02
8.987100000000000644e-02
8.798100000000000365e-02
8.342900000000000316e-02
7.645899999999999919e-02
6.689199999999999313e-02
5.582600000000000062e-02
4.389699999999999852e-02
3.178600000000000175e-02
2.018000000000000002e-02
9.740300000000000347e-03
1.060699999999999924e-03
-5.361799999999999899e-03
-8.252600000000000560e-03
-8.411899999999999933e-03
-5.882400000000000302e-03
-8.476000000000000027e-04
6.381399999999999746e-03
1.538499999999999937e-02
2.565999999999999878e-02
3.664499999999999702e-02
4.729200000000000070e-02
5.754599999999999993e-02
6.691099999999999826e-02
7.494000000000000661e-02
8.125200000000000478e-02
8.555100000000000204e-02
8.763999999999999568e-02
8.742400000000000171e-02
8.497499999999999498e-02
8.035200000000000675e-02
7.377699999999999536e-02
6.556399999999999728e-02
5.610799999999999815e-02
4.586699999999999805e-02
3.534299999999999942e-02
2.506099999999999994e-02
1.505800000000000020e-02
6.373000000000000193e-03
-4.886499999999999785e-04
-5.102800000000000218e-03
-7.152699999999999683e-03
-6.448800000000000192e-03
-2.942900000000000030e-03
3.263999999999999974e-03
1.308299999999999914e-02
2.480999999999999872e-02
3.778299999999999714e-02
5.127000000000000307e-02
6.450400000000000578e-02
7.672700000000000353e-02
8.723499999999999310e-02
9.541600000000000081e-02
9.961899999999999922e-02
1.008499999999999952e-01
9.908999999999999753e-02
9.449599999999999667e-02
8.735700000000000409e-02
7.809000000000000663e-02
6.721499999999999697e-02
5.532399999999999818e-02
4.341199999999999920e-02
3.170800000000000007e-02
2.078899999999999845e-02
1.118800000000000003e-02
3.369800000000000052e-03
-2.292999999999999899e-03
-5.534899999999999716e-03
-6.210199999999999922e-03
-4.058299999999999928e-03
5.391299999999999695e-04
7.321099999999999657e-03
1.592100000000000112e-02
2.588400000000000076e-02
3.669300000000000339e-02
4.778899999999999815e-02
5.859999999999999931e-02
6.851100000000000245e-02
7.708199999999999774e-02
8.387100000000000111e-02
8.852400000000000546e-02
9.078799999999999371e-02
9.052899999999999836e-02
8.773200000000000442e-02
8.251300000000000301e-02
7.469099999999999351e-02
6.508400000000000296e-02
5.418900000000000106e-02
4.257099999999999773e-02
3.083500000000000130e-02
1.959199999999999831e-02
9.433900000000000272e-03
9.006500000000000183e-04
-5.397199999999999567e-03
-9.278200000000000336e-03
-1.052400000000000037e-02
-9.046900000000000081e-03
-4.895199999999999725e-03
1.747000000000000072e-03
1.056700000000000000e-02
2.113500000000000101e-02
3.367400000000000254e-02
4.674099999999999783e-02
5.959899999999999920e-02
7.151000000000000412e-02
8.178399999999999559e-02
8.981200000000000294e-02
9.510299999999999310e-02
9.731700000000000073e-02
9.498800000000000299e-02
8.959200000000000497e-02
8.148199999999999887e-02
7.115900000000000003e-02
5.923699999999999799e-02
4.641399999999999693e-02
3.342599999999999738e-02
2.101000000000000090e-02
1.057300000000000080e-02
1.918699999999999963e-03
-4.533200000000000250e-03
-8.481400000000000050e-03
-9.757000000000000048e-03
-8.329899999999999458e-03
-4.308600000000000103e-03
2.066300000000000081e-03
1.068000000000000026e-02
2.079900000000000151e-02
3.185299999999999937e-02
4.322499999999999953e-02
5.428600000000000092e-02
6.442399999999999516e-02
7.308000000000000607e-02
7.977499999999999869e-02
8.362300000000000288e-02
8.496099999999999486e-02
8.374299999999999800e-02
8.005600000000000216e-02
7.411399999999999932e-02
6.624599999999999933e-02
5.688300000000000300e-02
4.653000000000000191e-02
3.561899999999999789e-02
2.487199999999999828e-02
1.488199999999999940e-02
6.214500000000000406e-03
-6.332900000000000031e-04
-5.251300000000000412e-03
-7.341399999999999662e-03
-6.733699999999999582e-03
-2.814099999999999935e-03
3.643599999999999877e-03
1.231600000000000056e-02
2.276399999999999951e-02
3.445800000000000252e-02
4.680100000000000232e-02
5.916400000000000131e-02
7.091400000000000481e-02
8.126200000000000090e-02
8.988000000000000156e-02
9.633200000000000096e-02
1.002900000000000041e-01
1.015299999999999953e-01
9.999299999999999855e-02
9.572899999999999465e-02
8.893500000000000016e-02
7.931599999999999762e-02
6.801200000000000301e-02
5.563300000000000189e-02
4.284600000000000214e-02
3.033800000000000038e-02
1.877900000000000055e-02
8.786099999999999813e-03
8.924500000000000358e-04
-3.775600000000000050e-03
-5.742299999999999661e-03
-4.963600000000000304e-03
-1.537299999999999908e-03
4.303999999999999666e-03
1.220700000000000084e-02
2.171500000000000166e-02
3.229699999999999932e-02
4.332199999999999940e-02
5.424099999999999755e-02
6.446200000000000541e-02
7.342600000000000515e-02
8.064000000000000334e-02
8.569899999999999740e-02
8.830699999999999661e-02
8.829399999999999749e-02
8.518199999999999383e-02
7.957599999999999396e-02
7.176899999999999946e-02
6.216599999999999904e-02
5.126700000000000007e-02
3.964100000000000262e-02
2.789399999999999866e-02
1.664300000000000154e-02
6.427800000000000007e-03
-2.149900000000000162e-03
-8.615700000000000441e-03
-1.259799999999999982e-02
-1.384600000000000067e-02
-1.225000000000000047e-02
-7.844500000000000778e-03
-8.113900000000000496e-04
9.433399999999999772e-03
2.140999999999999848e-02
3.444500000000000339e-02
4.780199999999999727e-02
6.072700000000000320e-02
7.248599999999999488e-02
8.240799999999999514e-02
8.992300000000000293e-02
9.349999999999999978e-02
9.410399999999999321e-02
9.176499999999999935e-02
8.666500000000000592e-02
7.913199999999999401e-02
6.961100000000000620e-02
5.864500000000000268e-02
4.684300000000000269e-02
3.522499999999999937e-02
2.400000000000000050e-02
1.373500000000000068e-02
4.947000000000000008e-03
-1.925700000000000025e-03
-6.539599999999999580e-03
-8.663399999999999920e-03
-8.188100000000000239e-03
-4.951200000000000219e-03
6.966000000000000187e-04
8.466500000000000067e-03
1.796599999999999933e-02
2.871599999999999847e-02
4.017799999999999844e-02
5.177600000000000258e-02
6.292499999999999483e-02
7.314299999999999968e-02
8.182000000000000384e-02
8.849700000000000621e-02
9.280700000000000061e-02
9.450000000000000067e-02
9.345100000000000628e-02
8.967300000000000271e-02
8.331800000000000317e-02
7.392600000000000560e-02
6.274899999999999922e-02
5.039300000000000029e-02
3.753100000000000186e-02
2.486100000000000115e-02
1.307600000000000082e-02
2.821999999999999856e-03
-5.335699999999999645e-03
-1.021400000000000086e-02
-1.232300000000000062e-02
-1.158299999999999955e-02
-8.061300000000000410e-03
-1.962100000000000042e-03
6.381999999999999652e-03
1.652999999999999955e-02
2.795299999999999868e-02
4.002200000000000202e-02
5.217100000000000209e-02
6.378200000000000536e-02
7.426399999999999668e-02
8.308500000000000607e-02
8.979099999999999582e-02
9.403599999999999459e-02
9.559399999999999842e-02
9.395699999999999885e-02
8.964900000000000646e-02
8.290899999999999659e-02
7.409899999999999820e-02
6.368100000000000149e-02
5.219700000000000034e-02
4.024199999999999999e-02
2.843499999999999847e-02
1.733399999999999871e-02
7.569199999999999887e-03
-3.413299999999999863e-04
-5.968700000000000394e-03
-8.996499999999999289e-03
-9.237900000000000278e-03
-6.646899999999999857e-03
-1.322999999999999957e-03
7.235499999999999744e-03
1.780999999999999944e-02
2.981500000000000122e-02
4.258699999999999986e-02
5.542199999999999904e-02
6.761100000000000443e-02
7.848099999999999521e-02
8.742900000000000671e-02
9.325700000000000656e-02
9.639300000000000646e-02
9.670299999999999729e-02
9.419800000000000395e-02
8.903300000000000103e-02
8.149299999999999600e-02
7.198499999999999344e-02
6.101100000000000273e-02
4.901500000000000301e-02
3.675799999999999901e-02
2.488999999999999893e-02
1.404099999999999966e-02
4.789700000000000034e-03
-2.367399999999999973e-03
-7.041900000000000243e-03
-8.974199999999999885e-03
-7.497799999999999777e-03
-3.273299999999999821e-03
3.445500000000000212e-03
1.227400000000000019e-02
2.272000000000000061e-02
3.420299999999999729e-02
4.609200000000000103e-02
5.773199999999999860e-02
6.855300000000000282e-02
7.787800000000000278e-02
8.516899999999999471e-02
8.999200000000000255e-02
9.203699999999999382e-02
9.114200000000000079e-02
8.730000000000000260e-02
8.066500000000000059e-02
7.040799999999999836e-02
5.827299999999999841e-02
4.497799999999999715e-02
3.131400000000000156e-02
1.809200000000000044e-02
6.105700000000000363e-03
-3.923399999999999631e-03
-1.138199999999999976e-02
-1.443799999999999945e-02
-1.435099999999999917e-02
-1.118700000000000076e-02
-5.174800000000000233e-03
3.305499999999999845e-03
1.375099999999999933e-02
2.556500000000000092e-02
3.808899999999999786e-02
4.996099999999999847e-02
6.129099999999999826e-02
7.153900000000000536e-02
8.022300000000000264e-02
8.694399999999999351e-02
9.139899999999999414e-02
9.339799999999999491e-02
9.286400000000000210e-02
8.988999999999999768e-02
8.458200000000000440e-02
7.720299999999999385e-02
6.811399999999999400e-02
5.775899999999999784e-02
4.663899999999999990e-02
3.529499999999999998e-02
2.428400000000000003e-02
1.383200000000000054e-02
4.800500000000000080e-03
-2.322100000000000119e-03
-7.136899999999999841e-03
-9.355399999999999827e-03
-8.816600000000000825e-03
-5.498699999999999595e-03
4.766899999999999913e-04
9.741200000000000206e-03
2.088599999999999832e-02
3.329000000000000015e-02
4.626099999999999657e-02
5.906999999999999751e-02
7.099800000000000555e-02
8.136799999999999589e-02
8.958900000000000197e-02
9.436500000000000443e-02
9.629100000000000159e-02
9.529100000000000070e-02
9.143900000000000639e-02
8.495700000000000474e-02
7.619800000000000184e-02
6.562800000000000578e-02
5.380599999999999966e-02
4.127499999999999919e-02
2.876199999999999937e-02
1.692799999999999860e-02
6.398599999999999947e-03
-2.265800000000000106e-03
-8.598899999999999599e-03
-1.225399999999999927e-02
-1.302099999999999959e-02
-1.016899999999999922e-02
-4.554199999999999568e-03
3.491999999999999878e-03
1.351600000000000024e-02
2.496400000000000008e-02
3.721399999999999708e-02
4.960300000000000126e-02
6.146999999999999686e-02
7.185999999999999333e-02
8.057499999999999385e-02
8.717900000000000649e-02
9.134000000000000452e-02
9.285300000000000498e-02
9.164200000000000124e-02
8.777300000000000380e-02
8.144400000000000250e-02
7.249600000000000488e-02
6.190899999999999875e-02
5.027000000000000218e-02
3.822099999999999803e-02
2.642299999999999857e-02
1.552500000000000061e-02
6.127699999999999814e-03
-1.249700000000000073e-03
-5.615000000000000199e-03
-7.346199999999999779e-03
-6.375999999999999723e-03
-2.775600000000000029e-03
3.249900000000000011e-03
1.137400000000000043e-02
2.116399999999999879e-02
3.210500000000000159e-02
4.370799999999999685e-02
5.528000000000000275e-02
6.620600000000000096e-02
7.590199999999999725e-02
8.384300000000000086e-02
8.959000000000000297e-02
9.281499999999999473e-02
9.331799999999999817e-02
9.042300000000000337e-02
8.491100000000000037e-02
7.708099999999999674e-02
6.735299999999999621e-02
5.623800000000000326e-02
4.431999999999999829e-02
3.221899999999999764e-02
2.056099999999999942e-02
1.022799999999999924e-02
1.444699999999999934e-03
-5.356399999999999877e-03
-9.841000000000000789e-03
-1.178799999999999987e-02
-1.110000000000000049e-02
-7.807200000000000251e-03
-2.069800000000000112e-03
6.087099999999999803e-03
1.598799999999999874e-02
2.711999999999999827e-02
3.890699999999999714e-02
5.073699999999999738e-02
6.199400000000000049e-02
7.208299999999999430e-02
8.046699999999999686e-02
8.662599999999999467e-02
9.028200000000000114e-02
9.120899999999999841e-02
8.931699999999999362e-02
8.465599999999999514e-02
7.741299999999999570e-02
6.791200000000000014e-02
5.659899999999999654e-02
4.313100000000000267e-02
2.913599999999999871e-02
1.540000000000000049e-02
2.707000000000000205e-03
-8.207799999999999471e-03
-1.669700000000000004e-02
-2.224100000000000035e-02
-2.447799999999999976e-02
-2.182399999999999965e-02
-1.588699999999999835e-02
-7.054000000000000374e-03
4.133699999999999701e-03
1.701099999999999834e-02
3.082800000000000124e-02
4.479199999999999848e-02
5.811600000000000099e-02
6.921299999999999675e-02
7.838900000000000035e-02
8.520700000000000496e-02
8.935999999999999499e-02
9.068099999999999772e-02
8.914700000000000402e-02
8.488099999999999812e-02
7.814200000000000312e-02
6.911000000000000476e-02
5.849499999999999839e-02
4.688900000000000012e-02
3.492800000000000071e-02
2.326399999999999996e-02
1.252900000000000021e-02
3.302699999999999993e-03
-3.916900000000000069e-03
-8.275700000000000417e-03
-1.004000000000000031e-02
-9.146200000000000163e-03
-5.664999999999999897e-03
1.997699999999999932e-04
8.124599999999999184e-03
1.768199999999999980e-02
2.836400000000000032e-02
3.974400000000000155e-02
5.107300000000000034e-02
6.173700000000000021e-02
7.115399999999999503e-02
7.880399999999999905e-02
8.425299999999999456e-02
8.718299999999999661e-02
8.740499999999999658e-02
8.420900000000000607e-02
7.844299999999999884e-02
7.043099999999999361e-02
6.061199999999999921e-02
4.952100000000000252e-02
3.775400000000000283e-02
2.594600000000000031e-02
1.473000000000000004e-02
4.985500000000000348e-03
-3.066900000000000008e-03
-9.007700000000000429e-03
-1.252299999999999941e-02
-1.341700000000000011e-02
-1.162700000000000018e-02
-7.221700000000000168e-03
-4.010899999999999969e-04
8.913799999999999502e-03
1.983700000000000047e-02
3.179699999999999888e-02
4.416599999999999693e-02
5.629200000000000176e-02
6.753499999999999781e-02
7.729500000000000259e-02
8.504599999999999660e-02
8.995100000000000318e-02
9.217999999999999805e-02
9.162199999999999511e-02
8.830100000000000449e-02
8.238299999999999790e-02
7.415900000000000269e-02
6.403699999999999670e-02
5.252400000000000124e-02
3.982900000000000329e-02
2.698700000000000057e-02
1.468900000000000067e-02
3.597799999999999956e-03
-5.676500000000000122e-03
-1.261499999999999948e-02
-1.681699999999999862e-02
-1.802099999999999883e-02
-1.527500000000000038e-02
-9.600499999999999659e-03
-1.326200000000000035e-03
9.086399999999999685e-03
2.106699999999999892e-02
3.396699999999999720e-02
4.709699999999999998e-02
5.975699999999999762e-02
7.084400000000000419e-02
8.025100000000000289e-02
8.751699999999999757e-02
9.229199999999999904e-02
9.434800000000000131e-02
9.359000000000000652e-02
9.006400000000000516e-02
8.395299999999999985e-02
7.526900000000000257e-02
6.476999999999999424e-02
5.301299999999999762e-02
4.061700000000000033e-02
2.823399999999999868e-02
1.651400000000000090e-02
6.078400000000000296e-03
-2.519500000000000038e-03
-8.621699999999999503e-03
-1.210600000000000044e-02
-1.278100000000000069e-02
-1.059500000000000025e-02
-5.641400000000000407e-03
1.847700000000000080e-03
1.150900000000000013e-02
2.286300000000000138e-02
3.603300000000000253e-02
4.959999999999999826e-02
6.279999999999999472e-02
7.488499999999999324e-02
8.515499999999999459e-02
9.300600000000000533e-02
9.795900000000000440e-02
9.969200000000000284e-02
9.673099999999999754e-02
9.062499999999999722e-02
8.176700000000000634e-02
7.069699999999999596e-02
5.807199999999999862e-02
4.462499999999999800e-02
3.112099999999999936e-02
1.832200000000000148e-02
7.817400000000000390e-03
-7.759499999999999688e-04
-7.061800000000000022e-03
-1.076900000000000079e-02
-1.175900000000000035e-02
-1.003399999999999952e-02
-5.727000000000000320e-03
9.004300000000000238e-04
9.462299999999999878e-03
1.951699999999999963e-02
3.053499999999999964e-02
4.194099999999999911e-02
5.314599999999999880e-02
6.357500000000000651e-02
7.269399999999999473e-02
8.003699999999999704e-02
8.501200000000000423e-02
8.759999999999999731e-02
8.768299999999999705e-02
8.526599999999999457e-02
8.047700000000000686e-02
7.356200000000000239e-02
6.487099999999999811e-02
5.484399999999999692e-02
4.361099999999999699e-02
3.214999999999999802e-02
2.108099999999999904e-02
1.100800000000000042e-02
2.482700000000000011e-03
-4.018800000000000323e-03
-8.127000000000000543e-03
-9.597700000000000675e-03
-7.589499999999999892e-03
-2.985999999999999939e-03
3.928700000000000248e-03
1.274800000000000065e-02
2.296399999999999830e-02
3.399800000000000044e-02
4.522899999999999837e-02
5.602599999999999941e-02
6.556299999999999628e-02
7.354499999999999926e-02
7.952900000000000247e-02
8.317599999999999993e-02
8.426599999999999369e-02
8.271000000000000574e-02
7.855800000000000283e-02
7.199500000000000344e-02
6.266700000000000048e-02
5.176100000000000145e-02
3.988699999999999884e-02
2.771200000000000052e-02
1.591899999999999912e-02
5.175500000000000413e-03
-3.907200000000000430e-03
-1.080599999999999963e-02
-1.433399999999999952e-02
-1.511799999999999949e-02
-1.314599999999999970e-02
-8.547900000000000637e-03
-1.591200000000000080e-03
7.338400000000000131e-03
1.775499999999999995e-02
2.910099999999999840e-02
4.071500000000000119e-02
5.204700000000000298e-02
6.249899999999999900e-02
7.151499999999999524e-02
7.861300000000000232e-02
8.340200000000000391e-02
8.561199999999999366e-02
8.509999999999999509e-02
8.124499999999999778e-02
7.488599999999999424e-02
6.637400000000000244e-02
5.616600000000000065e-02
4.480499999999999761e-02
3.288800000000000057e-02
2.103400000000000061e-02
9.856900000000000037e-03
3.934400000000000007e-04
-7.382399999999999900e-03
-1.311400000000000066e-02
-1.654699999999999921e-02
-1.753800000000000150e-02
-1.605900000000000036e-02
-1.220000000000000077e-02
-6.162800000000000396e-03
1.712299999999999933e-03
1.108199999999999984e-02
2.149200000000000069e-02
3.243700000000000055e-02
4.338899999999999701e-02
5.381199999999999872e-02
6.319600000000000217e-02
7.107600000000000029e-02
7.722900000000000598e-02
8.114499999999999491e-02
8.259199999999999875e-02
8.145199999999999663e-02
7.773399999999999754e-02
7.157399999999999873e-02
6.323499999999999954e-02
5.309799999999999937e-02
4.074200000000000044e-02
2.775199999999999889e-02
1.486299999999999948e-02
2.818000000000000192e-03
-7.673400000000000359e-03
-1.597499999999999962e-02
-2.156200000000000130e-02
-2.404799999999999993e-02
-2.209200000000000053e-02
-1.693300000000000013e-02
-8.854900000000000618e-03
1.699299999999999942e-03
1.415899999999999971e-02
2.785299999999999929e-02
4.205099999999999810e-02
5.599599999999999717e-02
6.863600000000000256e-02
7.964999999999999858e-02
8.847900000000000209e-02
9.467799999999999827e-02
9.793399999999999328e-02
9.808699999999999364e-02
9.513599999999999834e-02
8.924100000000000088e-02
7.984099999999999531e-02
6.837999999999999634e-02
5.554200000000000109e-02
4.208300000000000235e-02
2.878500000000000156e-02
1.641499999999999904e-02
5.683299999999999637e-03
-2.799999999999999972e-03
-7.332700000000000155e-03
-8.984999999999999931e-03
-7.762599999999999709e-03
-3.825400000000000068e-03
2.526200000000000147e-03
1.087300000000000072e-02
2.070200000000000165e-02
3.143800000000000067e-02
4.177199999999999663e-02
5.190299999999999775e-02
6.134300000000000169e-02
6.965000000000000357e-02
7.644199999999999606e-02
8.141800000000000426e-02
8.436299999999999355e-02
8.515999999999999959e-02
8.405799999999999383e-02
8.083700000000000607e-02
7.564099999999999990e-02
6.870999999999999330e-02
6.036400000000000099e-02
5.099900000000000266e-02
4.106200000000000128e-02
3.103900000000000062e-02
2.073600000000000096e-02
1.142800000000000066e-02
3.667199999999999800e-03
-2.065599999999999901e-03
-5.385799999999999615e-03
-6.030500000000000270e-03
-3.877199999999999917e-03
1.044199999999999903e-03
9.872900000000000426e-03
2.076899999999999927e-02
3.309000000000000136e-02
4.610999999999999821e-02
5.905900000000000039e-02
7.116500000000000603e-02
8.170499999999999985e-02
9.004099999999999604e-02
9.450100000000000167e-02
9.605099999999999749e-02
9.465200000000000002e-02
9.042699999999999350e-02
8.364699999999999913e-02
7.472099999999999576e-02
6.416399999999999881e-02
5.257699999999999874e-02
4.066199999999999676e-02
2.901600000000000013e-02
1.828300000000000064e-02
9.057799999999999532e-03
1.854200000000000076e-03
-2.920700000000000032e-03
-4.989300000000000332e-03
-4.219699999999999840e-03
2.627299999999999731e-04
7.267700000000000202e-03
1.636100000000000054e-02
2.699800000000000116e-02
3.855599999999999999e-02
5.036700000000000205e-02
6.175800000000000040e-02
7.208599999999999730e-02
7.979100000000000081e-02
8.551100000000000367e-02
8.900399999999999978e-02
9.014400000000000190e-02
8.892200000000000104e-02
8.543900000000000106e-02
7.989699999999999580e-02
7.258900000000000075e-02
6.446899999999999853e-02
5.528000000000000275e-02
4.540000000000000285e-02
3.522999999999999743e-02
2.518499999999999905e-02
1.567400000000000043e-02
7.089999999999999948e-03
-2.102100000000000084e-04
-6.637599999999999577e-03
-1.112499999999999947e-02
-1.340200000000000072e-02
-1.329499999999999953e-02
-1.073999999999999955e-02
-5.794800000000000124e-03
1.362200000000000043e-03
1.042900000000000077e-02
2.233900000000000122e-02
3.505599999999999689e-02
4.782499999999999946e-02
5.987399999999999667e-02
7.045800000000000674e-02
7.890199999999999991e-02
8.464700000000000002e-02
8.727899999999999547e-02
8.500499999999999723e-02
7.954999999999999571e-02
7.126000000000000389e-02
6.064200000000000146e-02
4.832899999999999696e-02
3.504499999999999976e-02
2.156200000000000130e-02
8.657599999999999671e-03
-2.255099999999999900e-03
-1.128900000000000042e-02
-1.797899999999999845e-02
-2.198599999999999860e-02
-2.311699999999999866e-02
-2.132699999999999874e-02
-1.672799999999999981e-02
-9.579799999999999427e-03
2.466500000000000051e-04
1.165000000000000063e-02
2.395999999999999866e-02
3.645799999999999735e-02
4.841199999999999670e-02
5.912400000000000294e-02
6.795800000000000451e-02
7.438599999999999379e-02
7.709699999999999886e-02
7.688699999999999701e-02
7.379299999999999748e-02
6.800499999999999601e-02
5.985300000000000342e-02
4.978599999999999692e-02
3.835000000000000214e-02
2.615599999999999870e-02
1.415100000000000038e-02
2.633400000000000150e-03
-7.814400000000000859e-03
-1.666400000000000173e-02
-2.346399999999999875e-02
-2.786100000000000035e-02
-2.961899999999999950e-02
-2.862699999999999967e-02
-2.472699999999999898e-02
-1.828099999999999864e-02
-9.592699999999999144e-03
9.228300000000000261e-04
1.275899999999999951e-02
2.534399999999999847e-02
3.806199999999999861e-02
5.028699999999999837e-02
6.157699999999999979e-02
7.118399999999999728e-02
7.859599999999999920e-02
8.339900000000000091e-02
8.530400000000000482e-02
8.415999999999999870e-02
7.996499999999999442e-02
7.287200000000000621e-02
6.232300000000000340e-02
4.973500000000000143e-02
3.577799999999999730e-02
2.119700000000000056e-02
6.773900000000000234e-03
-6.713700000000000397e-03
-1.853499999999999939e-02
-2.804299999999999848e-02
-3.391600000000000170e-02
-3.667999999999999733e-02
-3.622000000000000219e-02
-3.257800000000000279e-02
-2.595499999999999891e-02
-1.669299999999999951e-02
-5.258200000000000200e-03
7.780300000000000410e-03
2.175099999999999950e-02
3.601300000000000334e-02
4.987699999999999773e-02
6.267699999999999660e-02
7.380200000000000649e-02
8.272500000000000686e-02
8.902999999999999803e-02
9.243200000000000027e-02
9.225800000000000667e-02
8.912399999999999489e-02
8.326200000000000268e-02
7.503600000000000547e-02
6.492599999999999760e-02
5.349899999999999795e-02
4.138300000000000312e-02
2.923800000000000010e-02
1.788800000000000112e-02
7.756200000000000420e-03
-6.174699999999999547e-04
-6.779499999999999936e-03
-1.038099999999999960e-02
-1.119700000000000036e-02
-9.131200000000000774e-03
-4.227599999999999761e-03
3.561100000000000203e-03
1.367499999999999966e-02
2.566699999999999884e-02
3.900200000000000194e-02
5.307900000000000118e-02
6.726500000000000534e-02
8.092399999999999594e-02
9.344700000000000228e-02
1.045800000000000063e-01
1.135300000000000059e-01
1.199100000000000027e-01
1.234399999999999942e-01
1.240300000000000014e-01
1.217199999999999949e-01
1.167500000000000066e-01
1.094799999999999940e-01
9.890200000000000380e-02
8.739800000000000346e-02
7.589899999999999425e-02
6.534600000000000131e-02
5.664500000000000091e-02
5.060100000000000015e-02
4.786900000000000183e-02
4.891199999999999715e-02
5.600800000000000223e-02
6.681399999999999839e-02
8.080299999999999983e-02
9.724700000000000011e-02
1.152600000000000013e-01
1.338399999999999868e-01
1.519600000000000117e-01
1.685599999999999876e-01
1.816399999999999959e-01
1.915300000000000058e-01
1.976600000000000024e-01
1.996100000000000096e-01
1.971999999999999864e-01
1.904200000000000059e-01
1.794699999999999906e-01
1.647399999999999975e-01
1.462100000000000066e-01
1.252699999999999925e-01
1.028000000000000025e-01
7.978000000000000369e-02
5.718199999999999672e-02
3.594300000000000272e-02
1.691300000000000095e-02
8.097700000000000210e-04
-1.054000000000000076e-02
-1.822700000000000015e-02
-2.225900000000000101e-02
-2.283299999999999913e-02
-2.031200000000000019e-02
-1.520099999999999923e-02
-8.114800000000000138e-03
2.601099999999999745e-04
8.424100000000000338e-03
1.655099999999999974e-02
2.406099999999999905e-02
3.042900000000000119e-02
3.520999999999999824e-02
3.805399999999999755e-02
3.871900000000000341e-02
3.708000000000000185e-02
3.339799999999999713e-02
2.748799999999999855e-02
1.954300000000000134e-02
9.863000000000000239e-03
-1.156600000000000033e-03
-1.304600000000000030e-02
-2.527700000000000086e-02
-3.729299999999999976e-02
-4.919599999999999668e-02
-5.968299999999999994e-02
-6.816700000000000537e-02
-7.414800000000000557e-02
-7.724100000000000410e-02
-7.720299999999999385e-02
-7.395100000000000284e-02
-6.757100000000000606e-02
-5.697300000000000281e-02
-4.411299999999999943e-02
-2.973100000000000048e-02
-1.466300000000000069e-02
2.126300000000000022e-04
1.402199999999999974e-02
2.594399999999999831e-02
3.525899999999999868e-02
4.021299999999999875e-02
4.174400000000000333e-02
3.978799999999999698e-02
3.446799999999999864e-02
2.608299999999999855e-02
1.508499999999999945e-02
2.060699999999999945e-03
-1.230200000000000043e-02
-2.731000000000000094e-02
-4.212500000000000272e-02
-5.596600000000000186e-02
-6.810499999999999887e-02
-7.790300000000000002e-02
-8.484099999999999975e-02
-8.855000000000000371e-02
-8.883299999999999530e-02
-8.444599999999999329e-02
-7.694700000000000151e-02
-6.683400000000000452e-02
-5.473999999999999699e-02
-4.138900000000000218e-02
-2.755799999999999916e-02
-1.403399999999999960e-02
-1.565800000000000004e-03
7.490000000000000130e-03
1.448200000000000008e-02
1.919300000000000173e-02
2.152499999999999900e-02
2.148999999999999869e-02
1.920200000000000032e-02
1.485700000000000041e-02
8.720000000000000320e-03
2.644899999999999942e-03
-4.780600000000000301e-03
-1.339199999999999939e-02
-2.299100000000000102e-02
-3.333900000000000058e-02
-4.415600000000000080e-02
-5.512000000000000233e-02
-6.586599999999999400e-02
-7.803200000000000414e-02
-8.887799999999999867e-02
-9.770600000000000118e-02
-1.038599999999999940e-01
-1.067799999999999999e-01
-1.060200000000000031e-01
-1.013000000000000012e-01
-9.249000000000000277e-02
-7.713799999999999824e-02
-5.839500000000000246e-02
-3.702899999999999942e-02
-1.390500000000000069e-02
1.007199999999999936e-02
3.401200000000000057e-02
5.710500000000000298e-02
7.867200000000000581e-02
9.582000000000000239e-02
1.109699999999999992e-01
1.243599999999999983e-01
1.363999999999999935e-01
1.476200000000000012e-01
1.587000000000000077e-01
1.703399999999999914e-01
1.832499999999999962e-01
1.997099999999999986e-01
2.184599999999999875e-01
2.397499999999999909e-01
2.636700000000000155e-01
2.902000000000000135e-01
3.191700000000000093e-01
3.502500000000000058e-01
3.830000000000000071e-01
4.149700000000000055e-01
4.475999999999999979e-01
4.803399999999999892e-01
5.125399999999999956e-01
5.434400000000000341e-01
5.722000000000000419e-01
5.978999999999999870e-01
6.195500000000000451e-01
6.404800000000000493e-01
6.548399999999999777e-01
6.611799999999999899e-01
6.582900000000000418e-01
6.452599999999999447e-01
6.215899999999999759e-01
5.872699999999999587e-01
5.427899999999999947e-01
4.814399999999999791e-01
4.135300000000000087e-01
3.420199999999999907e-01
2.700799999999999867e-01
2.008900000000000130e-01
1.374499999999999889e-01
8.242299999999999627e-02
3.792100000000000332e-02
1.482400000000000037e-02
3.172499999999999973e-03
1.743500000000000041e-03
8.752499999999999863e-03
2.199999999999999872e-02
3.903899999999999731e-02
5.734800000000000314e-02
7.450900000000000578e-02
8.040200000000000125e-02
8.234800000000000453e-02
8.008700000000000541e-02
7.374999999999999611e-02
6.381100000000000660e-02
5.101900000000000185e-02
3.632200000000000012e-02
2.077199999999999880e-02
1.028399999999999974e-02
3.416199999999999988e-04
-8.786300000000000360e-03
-1.691499999999999948e-02
-2.393999999999999947e-02
-2.982800000000000035e-02
-3.460099999999999981e-02
-3.831899999999999890e-02
-4.358700000000000074e-02
-4.761499999999999760e-02
-5.016700000000000326e-02
-5.105099999999999916e-02
-5.013399999999999801e-02
-4.735899999999999832e-02
-4.276100000000000040e-02
-3.647399999999999948e-02
-2.723300000000000026e-02
-1.707799999999999943e-02
-6.619200000000000431e-03
3.495100000000000116e-03
1.261800000000000074e-02
2.013900000000000065e-02
2.552600000000000008e-02
2.835400000000000073e-02
2.733100000000000113e-02
2.347499999999999934e-02
1.694999999999999979e-02
8.068199999999999331e-03
-2.723199999999999840e-03
-1.486700000000000001e-02
-2.772300000000000111e-02
-4.059800000000000214e-02
-5.317899999999999711e-02
-6.434099999999999542e-02
-7.340299999999999603e-02
-7.977800000000000169e-02
-8.301300000000000345e-02
-8.281600000000000072e-02
-7.907899999999999652e-02
-7.188500000000000445e-02
-5.976700000000000068e-02
-4.517800000000000288e-02
-2.897299999999999875e-02
-1.210600000000000044e-02
4.429599999999999684e-03
1.965799999999999839e-02
3.268000000000000071e-02
4.272499999999999909e-02
4.718300000000000272e-02
4.796799999999999675e-02
4.518400000000000194e-02
3.912899999999999712e-02
3.027699999999999836e-02
1.924100000000000116e-02
6.736800000000000253e-03
-6.461299999999999683e-03
-1.836499999999999938e-02
-2.958300000000000166e-02
-3.957000000000000101e-02
-4.785400000000000070e-02
-5.405499999999999888e-02
-5.790000000000000008e-02
-5.922399999999999887e-02
-5.798299999999999982e-02
-5.471000000000000169e-02
-4.904800000000000132e-02
-4.121600000000000263e-02
-3.152499999999999747e-02
-2.037399999999999975e-02
-8.228499999999999703e-03
4.394399999999999695e-03
1.694800000000000126e-02
2.948900000000000132e-02
4.078999999999999987e-02
5.027600000000000124e-02
5.745000000000000107e-02
6.191800000000000082e-02
6.341199999999999615e-02
6.181199999999999889e-02
5.715100000000000041e-02
4.859200000000000325e-02
3.764800000000000091e-02
2.493300000000000030e-02
1.115700000000000025e-02
-2.913100000000000064e-03
-1.649499999999999925e-02
-2.883199999999999999e-02
-3.923399999999999804e-02
-4.647899999999999948e-02
-5.084299999999999931e-02
-5.210999999999999660e-02
-5.022700000000000081e-02
-4.529999999999999999e-02
-3.759300000000000141e-02
-2.750999999999999973e-02
-1.558299999999999963e-02
-1.825800000000000036e-03
1.238599999999999944e-02
2.625200000000000103e-02
3.898999999999999688e-02
4.987699999999999773e-02
5.829499999999999960e-02
6.376099999999999823e-02
6.596000000000000474e-02
6.318400000000000405e-02
5.729299999999999671e-02
4.874599999999999766e-02
3.814499999999999835e-02
2.619900000000000007e-02
1.368199999999999972e-02
1.379999999999999933e-03
-9.950000000000000511e-03
-1.818200000000000024e-02
-2.439099999999999949e-02
-2.832900000000000001e-02
-2.987799999999999831e-02
-2.904999999999999943e-02
-2.597999999999999962e-02
-2.090799999999999950e-02
-1.416700000000000077e-02
-6.851300000000000272e-03
1.385600000000000069e-03
1.016099999999999989e-02
1.907999999999999974e-02
2.774700000000000083e-02
3.578599999999999837e-02
4.285400000000000320e-02
4.865400000000000280e-02
5.328800000000000203e-02
5.619600000000000289e-02
5.723400000000000015e-02
5.634600000000000025e-02
5.356500000000000150e-02
4.901699999999999807e-02
4.291299999999999976e-02
3.554800000000000321e-02
2.664300000000000002e-02
1.733799999999999925e-02
8.166700000000000695e-03
-3.392199999999999946e-04
-7.675399999999999757e-03
-1.339399999999999966e-02
-1.712999999999999939e-02
-1.862199999999999966e-02
-1.696100000000000038e-02
-1.300600000000000020e-02
-6.971899999999999625e-03
8.163600000000000240e-04
9.941399999999999543e-03
1.991700000000000068e-02
3.021400000000000127e-02
4.028700000000000336e-02
4.933499999999999691e-02
5.718199999999999672e-02
6.343899999999999539e-02
6.779499999999999416e-02
7.003900000000000403e-02
7.006500000000000228e-02
6.788299999999999890e-02
6.361400000000000388e-02
5.715100000000000041e-02
4.920900000000000274e-02
4.024900000000000005e-02
3.078699999999999840e-02
2.137299999999999964e-02
1.255799999999999972e-02
4.871300000000000283e-03
-1.211899999999999913e-03
-5.169199999999999663e-03
-6.843400000000000351e-03
-6.061200000000000095e-03
-2.771399999999999818e-03
2.950799999999999951e-03
1.090499999999999976e-02
2.077199999999999880e-02
3.212899999999999784e-02
4.525200000000000056e-02
5.868099999999999705e-02
7.170600000000000585e-02
8.362999999999999601e-02
9.380399999999999849e-02
1.016699999999999965e-01
1.067899999999999960e-01
1.088699999999999946e-01
1.063700000000000062e-01
1.009599999999999942e-01
9.305599999999999983e-02
8.320099999999999718e-02
7.204499999999999793e-02
6.029999999999999943e-02
4.870000000000000023e-02
3.796000000000000069e-02
2.977700000000000138e-02
2.351500000000000118e-02
1.947700000000000126e-02
1.784300000000000122e-02
1.866299999999999903e-02
2.186000000000000096e-02
2.723700000000000079e-02
3.449200000000000182e-02
4.294699999999999906e-02
5.246800000000000075e-02
6.258099999999999774e-02
7.278400000000000147e-02
8.257100000000000550e-02
9.145200000000000551e-02
9.897999999999999854e-02
1.047600000000000059e-01
1.086300000000000043e-01
1.102199999999999985e-01
1.093800000000000050e-01
1.061200000000000060e-01
1.005199999999999982e-01
9.279199999999999948e-02
8.326300000000000368e-02
7.234300000000000452e-02
5.977999999999999980e-02
4.695699999999999874e-02
3.454600000000000032e-02
2.320300000000000140e-02
1.353500000000000016e-02
6.068999999999999742e-03
1.213000000000000102e-03
-7.622399999999999662e-04
1.331300000000000105e-03
6.218200000000000116e-03
1.354400000000000048e-02
2.282000000000000001e-02
3.345299999999999663e-02
4.477699999999999736e-02
5.608799999999999897e-02
6.668699999999999628e-02
7.540099999999999580e-02
8.223199999999999954e-02
8.676300000000000678e-02
8.869299999999999407e-02
8.785500000000000254e-02
8.422100000000000419e-02
7.790900000000000603e-02
6.917099999999999638e-02
5.793899999999999745e-02
4.520600000000000313e-02
3.160199999999999815e-02
1.780800000000000091e-02
4.516499999999999682e-03
-7.600899999999999844e-03
-1.793000000000000149e-02
-2.594799999999999884e-02
-3.057800000000000101e-02
-3.231200000000000044e-02
-3.111699999999999883e-02
-2.710100000000000009e-02
-2.051100000000000145e-02
-1.171200000000000019e-02
-1.173199999999999894e-03
1.055700000000000041e-02
2.274299999999999933e-02
3.492499999999999771e-02
4.650499999999999773e-02
5.691899999999999737e-02
6.565999999999999615e-02
7.230499999999999428e-02
7.653300000000000380e-02
7.814000000000000112e-02
7.680800000000000127e-02
7.287200000000000621e-02
6.655099999999999905e-02
5.817900000000000155e-02
4.819099999999999773e-02
3.710000000000000103e-02
2.547699999999999965e-02
1.391700000000000055e-02
2.784899999999999876e-03
-7.091700000000000260e-03
-1.516900000000000019e-02
-2.099099999999999924e-02
-2.420999999999999888e-02
-2.460999999999999993e-02
-2.211799999999999877e-02
-1.681500000000000009e-02
-8.038999999999999271e-03
2.827599999999999992e-03
1.517399999999999999e-02
2.830600000000000130e-02
4.148199999999999804e-02
5.395500000000000296e-02
6.501500000000000334e-02
7.402300000000000546e-02
7.972600000000000520e-02
8.255800000000000638e-02
8.237200000000000077e-02
7.917699999999999738e-02
7.313600000000000656e-02
6.455299999999999927e-02
5.386200000000000015e-02
4.160099999999999909e-02
2.807600000000000026e-02
1.430099999999999948e-02
9.993700000000000760e-04
-1.113100000000000027e-02
-2.145400000000000085e-02
-2.942600000000000077e-02
-3.463399999999999812e-02
-3.680900000000000144e-02
-3.478900000000000048e-02
-2.985000000000000153e-02
-2.236300000000000093e-02
-1.283600000000000019e-02
-1.880600000000000067e-03
9.825300000000000353e-03
2.157200000000000090e-02
3.265799999999999953e-02
4.165900000000000158e-02
4.888900000000000190e-02
5.398200000000000220e-02
5.669400000000000134e-02
5.690100000000000019e-02
5.461300000000000182e-02
4.996199999999999947e-02
4.320299999999999835e-02
3.461399999999999894e-02
2.471800000000000039e-02
1.402800000000000054e-02
3.097799999999999946e-03
-7.511699999999999627e-03
-1.725600000000000050e-02
-2.563700000000000007e-02
-3.222599999999999770e-02
-3.629500000000000087e-02
-3.805800000000000155e-02
-3.745300000000000018e-02
-3.453200000000000019e-02
-2.945599999999999954e-02
-2.248999999999999957e-02
-1.398399999999999990e-02
-4.359199999999999707e-03
5.874400000000000108e-03
1.626999999999999974e-02
2.633399999999999977e-02
3.558700000000000058e-02
4.359600000000000281e-02
4.998500000000000165e-02
5.446200000000000346e-02
5.682399999999999951e-02
5.678899999999999920e-02
5.458199999999999857e-02
5.034299999999999886e-02
4.431700000000000222e-02
3.683199999999999669e-02
2.828999999999999918e-02
1.914599999999999982e-02
9.884000000000000424e-03
6.895199999999999984e-04
-7.613299999999999929e-03
-1.454500000000000064e-02
-1.969500000000000070e-02
-2.273899999999999880e-02
-2.346799999999999928e-02
-2.179199999999999887e-02
-1.775399999999999895e-02
-1.059399999999999925e-02
-1.674700000000000103e-03
8.468399999999999192e-03
1.922899999999999957e-02
2.996100000000000152e-02
4.001699999999999702e-02
4.878600000000000297e-02
5.572599999999999776e-02
5.958100000000000201e-02
6.096499999999999836e-02
5.981000000000000205e-02
5.618100000000000177e-02
5.027600000000000124e-02
4.241400000000000031e-02
3.301300000000000068e-02
2.257599999999999885e-02
1.161700000000000059e-02
7.599899999999999928e-04
-9.407399999999999790e-03
-1.832900000000000154e-02
-2.550699999999999842e-02
-3.053300000000000111e-02
-3.310599999999999654e-02
-3.304900000000000199e-02
-2.975600000000000120e-02
-2.397300000000000125e-02
-1.600899999999999893e-02
-6.288199999999999866e-03
4.673100000000000344e-03
1.629299999999999846e-02
2.795500000000000068e-02
3.903600000000000125e-02
4.882700000000000234e-02
5.692699999999999844e-02
6.289599999999999358e-02
6.640000000000000069e-02
6.722499999999999309e-02
6.529100000000000181e-02
6.066099999999999964e-02
5.353499999999999925e-02
4.352000000000000313e-02
3.189000000000000168e-02
1.928399999999999906e-02
6.399300000000000127e-03
-6.049599999999999596e-03
-1.736899999999999902e-02
-2.692400000000000002e-02
-3.417300000000000199e-02
-3.784200000000000064e-02
-3.863199999999999967e-02
-3.653700000000000003e-02
-3.169899999999999801e-02
-2.440000000000000155e-02
-1.504300000000000082e-02
-4.130599999999999897e-03
7.758300000000000092e-03
1.981700000000000128e-02
3.162600000000000133e-02
4.259000000000000286e-02
5.215499999999999997e-02
5.983700000000000130e-02
6.524299999999999544e-02
6.809300000000000075e-02
6.823099999999999998e-02
6.529200000000000281e-02
5.977899999999999880e-02
5.197800000000000337e-02
4.228900000000000020e-02
3.120399999999999910e-02
1.928200000000000053e-02
7.125199999999999936e-03
-4.654900000000000010e-03
-1.546100000000000078e-02
-2.475000000000000117e-02
-3.204499999999999710e-02
-3.696300000000000280e-02
-3.923299999999999704e-02
-3.871700000000000141e-02
-3.540900000000000297e-02
-2.944499999999999895e-02
-2.044999999999999943e-02
-9.545500000000000165e-03
2.686899999999999879e-03
1.559900000000000002e-02
2.850899999999999962e-02
4.073600000000000138e-02
5.163800000000000334e-02
6.064200000000000146e-02
6.664599999999999691e-02
7.002999999999999503e-02
7.067299999999999971e-02
6.859500000000000319e-02
6.395000000000000684e-02
5.702100000000000224e-02
4.820300000000000279e-02
3.798200000000000187e-02
2.677799999999999972e-02
1.532999999999999988e-02
4.259899999999999624e-03
-5.830700000000000292e-03
-1.439200000000000028e-02
-2.095500000000000140e-02
-2.515399999999999928e-02
-2.674899999999999847e-02
-2.499099999999999933e-02
-2.065399999999999875e-02
-1.400099999999999956e-02
-5.417299999999999893e-03
4.616399999999999670e-03
1.554600000000000079e-02
2.677500000000000019e-02
3.769600000000000034e-02
4.743800000000000100e-02
5.579100000000000031e-02
6.233099999999999752e-02
6.672400000000000553e-02
6.874700000000000255e-02
6.829599999999999560e-02
6.539399999999999380e-02
6.018699999999999745e-02
5.253399999999999737e-02
4.326499999999999790e-02
3.289199999999999763e-02
2.198699999999999960e-02
1.114700000000000066e-02
9.698800000000000043e-04
-7.983000000000000512e-03
-1.521199999999999983e-02
-1.989900000000000002e-02
-2.221199999999999911e-02
-2.203000000000000097e-02
-1.935800000000000021e-02
-1.432499999999999919e-02
-7.183700000000000328e-03
1.709599999999999922e-03
1.190599999999999992e-02
2.314099999999999838e-02
3.456999999999999656e-02
4.558000000000000246e-02
5.557299999999999740e-02
6.399799999999999933e-02
7.037799999999999612e-02
7.434000000000000330e-02
7.562900000000000178e-02
7.350500000000000089e-02
6.870600000000000318e-02
6.148300000000000293e-02
5.221100000000000046e-02
4.137099999999999805e-02
2.952300000000000063e-02
1.727800000000000169e-02
5.268600000000000019e-03
-5.799099999999999741e-03
-1.544899999999999919e-02
-2.318299999999999875e-02
-2.859499999999999889e-02
-3.139200000000000323e-02
-3.141399999999999748e-02
-2.863900000000000126e-02
-2.318699999999999928e-02
-1.467500000000000054e-02
-4.218200000000000074e-03
7.605400000000000008e-03
2.014300000000000118e-02
3.270300000000000290e-02
4.459199999999999969e-02
5.515099999999999864e-02
6.379200000000000148e-02
6.947599999999999609e-02
7.247099999999999376e-02
7.263000000000000012e-02
6.995200000000000029e-02
6.457999999999999852e-02
5.679300000000000320e-02
4.699600000000000305e-02
3.569499999999999756e-02
2.310900000000000107e-02
1.028600000000000000e-02
-2.068200000000000073e-03
-1.327099999999999981e-02
-2.269300000000000136e-02
-2.979899999999999910e-02
-3.417300000000000199e-02
-3.554299999999999821e-02
-3.283599999999999713e-02
-2.720399999999999902e-02
-1.899100000000000094e-02
-8.680699999999999528e-03
3.136200000000000012e-03
1.579300000000000148e-02
2.858399999999999830e-02
4.080199999999999799e-02
5.124399999999999789e-02
5.992200000000000304e-02
6.640100000000000169e-02
7.036299999999999499e-02
7.161800000000000110e-02
7.011000000000000565e-02
6.592399999999999649e-02
5.927799999999999736e-02
5.015800000000000120e-02
3.941200000000000259e-02
2.761800000000000019e-02
1.540799999999999982e-02
3.431399999999999815e-03
-7.677899999999999656e-03
-1.733300000000000118e-02
-2.502400000000000110e-02
-2.978099999999999845e-02
-3.197099999999999942e-02
-3.152400000000000341e-02
-2.850400000000000156e-02
-2.310399999999999954e-02
-1.563200000000000006e-02
-6.498799999999999889e-03
3.808600000000000093e-03
1.472399999999999924e-02
2.570700000000000068e-02
3.618799999999999795e-02
4.562399999999999789e-02
5.352200000000000013e-02
5.947000000000000203e-02
6.315099999999999880e-02
6.436300000000000354e-02
6.266399999999999748e-02
5.852199999999999763e-02
5.216300000000000103e-02
4.392499999999999877e-02
3.424300000000000260e-02
2.362200000000000064e-02
1.262100000000000027e-02
1.815299999999999943e-03
-8.304600000000000523e-03
-1.711400000000000074e-02
-2.412299999999999861e-02
-2.893099999999999838e-02
-3.124100000000000141e-02
-3.088000000000000120e-02
-2.781099999999999892e-02
-2.213400000000000090e-02
-1.332299999999999977e-02
-2.609400000000000001e-03
9.432299999999999365e-03
2.215599999999999861e-02
3.487699999999999828e-02
4.691000000000000031e-02
5.760699999999999849e-02
6.638700000000000156e-02
7.199600000000000444e-02
7.497299999999999798e-02
7.521100000000000008e-02
7.274200000000000110e-02
6.773200000000000054e-02
6.047000000000000292e-02
5.135499999999999787e-02
4.086900000000000255e-02
2.970199999999999924e-02
1.826699999999999852e-02
7.135999999999999982e-03
-3.136400000000000125e-03
-1.203899999999999935e-02
-1.912900000000000017e-02
-2.405099999999999946e-02
-2.655599999999999974e-02
-2.641299999999999898e-02
-2.373000000000000109e-02
-1.864000000000000032e-02
-1.139399999999999961e-02
-2.353500000000000123e-03
8.030799999999999397e-03
1.923400000000000110e-02
3.068399999999999947e-02
4.231900000000000245e-02
5.295199999999999907e-02
6.196399999999999825e-02
6.880799999999999417e-02
7.304199999999999582e-02
7.435700000000000642e-02
7.259799999999999587e-02
6.777500000000000191e-02
5.877999999999999892e-02
4.742400000000000088e-02
3.436999999999999778e-02
2.038099999999999981e-02
6.276300000000000281e-03
-7.112099999999999672e-03
-1.898899999999999894e-02
-2.864099999999999979e-02
-3.444300000000000139e-02
-3.713700000000000334e-02
-3.659500000000000253e-02
-3.285699999999999732e-02
-2.613299999999999998e-02
-1.678400000000000031e-02
-5.305599999999999726e-03
7.698700000000000161e-03
2.165999999999999870e-02
3.573699999999999793e-02
4.918399999999999855e-02
6.128800000000000220e-02
7.140299999999999425e-02
7.898700000000000165e-02
8.362899999999999501e-02
8.507399999999999685e-02
8.226700000000000679e-02
7.639400000000000357e-02
6.783799999999999553e-02
5.711700000000000110e-02
4.485900000000000304e-02
3.176500000000000157e-02
1.856800000000000117e-02
5.996399999999999821e-03
-4.562599999999999989e-03
-1.330899999999999965e-02
-1.983400000000000094e-02
-2.384800000000000114e-02
-2.519000000000000059e-02
-2.383300000000000002e-02
-1.988399999999999890e-02
-1.357399999999999926e-02
-5.239599999999999640e-03
4.670599999999999578e-03
1.563799999999999912e-02
2.709599999999999856e-02
3.845400000000000207e-02
4.912799999999999806e-02
5.856800000000000200e-02
6.628599999999999770e-02
7.181800000000000683e-02
7.493400000000000061e-02
7.546200000000000130e-02
7.335300000000000153e-02
6.869200000000000306e-02
6.168799999999999978e-02
5.267199999999999660e-02
4.207999999999999935e-02
2.971499999999999836e-02
1.696999999999999897e-02
4.555799999999999607e-03
-6.829499999999999633e-03
-1.653699999999999962e-02
-2.400499999999999856e-02
-2.878999999999999962e-02
-3.059500000000000067e-02
-2.799300000000000052e-02
-2.249599999999999864e-02
-1.447999999999999982e-02
-4.458000000000000157e-03
6.952800000000000299e-03
1.906800000000000161e-02
3.117500000000000132e-02
4.257299999999999973e-02
5.163100000000000328e-02
5.890800000000000203e-02
6.407599999999999407e-02
6.692499999999999838e-02
6.736399999999999333e-02
6.542599999999999805e-02
6.125799999999999995e-02
5.511300000000000227e-02
4.760500000000000148e-02
3.884200000000000153e-02
2.926099999999999882e-02
1.933299999999999949e-02
9.544699999999999712e-03
3.735999999999999738e-04
-7.731299999999999978e-03
-1.437100000000000009e-02
-1.940300000000000011e-02
-2.236600000000000046e-02
-2.308299999999999935e-02
-2.148200000000000109e-02
-1.760499999999999912e-02
-1.160500000000000073e-02
-3.746699999999999944e-03
5.609199999999999950e-03
1.676199999999999912e-02
2.835800000000000126e-02
3.974899999999999961e-02
5.029100000000000237e-02
5.937499999999999722e-02
6.646399999999999531e-02
7.112300000000000566e-02
7.304599999999999982e-02
7.106500000000000317e-02
6.633200000000000207e-02
5.913999999999999813e-02
4.991299999999999903e-02
3.918499999999999761e-02
2.757000000000000076e-02
1.572799999999999893e-02
4.330500000000000148e-03
-5.651800000000000226e-03
-1.400799999999999962e-02
-2.027899999999999842e-02
-2.411299999999999902e-02
-2.528400000000000092e-02
-2.370299999999999838e-02
-1.942400000000000029e-02
-1.264299999999999972e-02
-3.057900000000000115e-03
8.170200000000000726e-03
2.041499999999999912e-02
3.299300000000000149e-02
4.519999999999999712e-02
5.634800000000000225e-02
6.580600000000000338e-02
7.302999999999999770e-02
7.676800000000000290e-02
7.768300000000000205e-02
7.575500000000000289e-02
7.110800000000000454e-02
6.400599999999999346e-02
5.483299999999999980e-02
4.407500000000000306e-02
3.229400000000000326e-02
2.026499999999999829e-02
8.417799999999999588e-03
-2.655999999999999941e-03
-1.240300000000000083e-02
-2.033400000000000138e-02
-2.605000000000000024e-02
-2.925799999999999929e-02
-2.978899999999999951e-02
-2.730199999999999988e-02
-2.223400000000000029e-02
-1.484800000000000009e-02
-5.518900000000000194e-03
5.281600000000000010e-03
1.701000000000000081e-02
2.907699999999999868e-02
4.087600000000000261e-02
5.187800000000000050e-02
6.145500000000000268e-02
6.910700000000000176e-02
7.442400000000000404e-02
7.710999999999999799e-02
7.699699999999999600e-02
7.405599999999999683e-02
6.839900000000000146e-02
5.954000000000000264e-02
4.869899999999999923e-02
3.646499999999999742e-02
2.349800000000000152e-02
1.050000000000000065e-02
-1.829099999999999953e-03
-1.282400000000000033e-02
-2.189199999999999827e-02
-2.788699999999999860e-02
-3.119999999999999857e-02
-3.169700000000000295e-02
-2.939399999999999999e-02
-2.444299999999999945e-02
-1.713200000000000139e-02
-7.866400000000000822e-03
2.854000000000000200e-03
1.461400000000000025e-02
2.662700000000000136e-02
3.824400000000000022e-02
4.883699999999999847e-02
5.783300000000000246e-02
6.473800000000000388e-02
6.917199999999999738e-02
7.088300000000000156e-02
6.904799999999999827e-02
6.452399999999999802e-02
5.759100000000000330e-02
4.866000000000000186e-02
3.824099999999999722e-02
2.692100000000000048e-02
1.532999999999999988e-02
4.106399999999999634e-03
-5.811600000000000099e-03
-1.422900000000000033e-02
-2.070299999999999918e-02
-2.488999999999999893e-02
-2.656100000000000128e-02
-2.561400000000000135e-02
-2.207699999999999940e-02
-1.611200000000000132e-02
-7.658299999999999830e-03
2.502199999999999997e-03
1.383799999999999961e-02
2.575699999999999865e-02
3.762999999999999678e-02
4.883200000000000041e-02
5.876599999999999879e-02
6.689900000000000013e-02
7.252000000000000113e-02
7.560100000000000153e-02
7.596999999999999587e-02
7.359100000000000363e-02
6.856299999999999895e-02
6.112200000000000272e-02
5.162599999999999828e-02
4.053999999999999965e-02
2.781199999999999992e-02
1.473900000000000036e-02
2.045200000000000056e-03
-9.558099999999999929e-03
-1.940899999999999917e-02
-2.693500000000000061e-02
-3.168100000000000083e-02
-3.334100000000000258e-02
-3.062499999999999944e-02
-2.487299999999999928e-02
-1.643999999999999975e-02
-5.820399999999999879e-03
6.376699999999999903e-03
1.946600000000000066e-02
3.272200000000000109e-02
4.542000000000000204e-02
5.616999999999999771e-02
6.516800000000000370e-02
7.199899999999999356e-02
7.635799999999999532e-02
7.807200000000000251e-02
7.709900000000000087e-02
7.353099999999999914e-02
6.758699999999999430e-02
5.949100000000000221e-02
4.979999999999999705e-02
3.903800000000000325e-02
2.778299999999999867e-02
1.663200000000000095e-02
6.174500000000000301e-03
-3.036699999999999816e-03
-1.051500000000000004e-02
-1.571900000000000033e-02
-1.852699999999999833e-02
-1.879199999999999968e-02
-1.649899999999999978e-02
-1.175999999999999962e-02
-4.817700000000000281e-03
3.969999999999999571e-03
1.414400000000000032e-02
2.581999999999999920e-02
3.766900000000000109e-02
4.898999999999999883e-02
5.909799999999999776e-02
6.736999999999999933e-02
7.327300000000000479e-02
7.639899999999999469e-02
7.649300000000000543e-02
7.220500000000000529e-02
6.505199999999999871e-02
5.545499999999999735e-02
4.396599999999999814e-02
3.124199999999999894e-02
1.800300000000000164e-02
4.993299999999999995e-03
-7.060799999999999889e-03
-1.661999999999999936e-02
-2.410299999999999943e-02
-2.916399999999999895e-02
-3.158199999999999896e-02
-3.127499999999999725e-02
-2.828999999999999918e-02
-2.280899999999999941e-02
-1.513399999999999988e-02
-5.738599999999999951e-03
4.973299999999999943e-03
1.646200000000000094e-02
2.815000000000000141e-02
3.945499999999999702e-02
4.981100000000000111e-02
5.869800000000000018e-02
6.566900000000000515e-02
7.026599999999999513e-02
7.236099999999999477e-02
7.184300000000000408e-02
6.872300000000000630e-02
6.314400000000000568e-02
5.536399999999999655e-02
4.575499999999999706e-02
3.477999999999999842e-02
2.246700000000000086e-02
9.975400000000000586e-03
-2.020800000000000114e-03
-1.286699999999999997e-02
-2.196199999999999888e-02
-2.878800000000000109e-02
-3.294199999999999906e-02
-3.415800000000000086e-02
-3.142899999999999860e-02
-2.582100000000000020e-02
-1.765500000000000055e-02
-7.386499999999999837e-03
4.423200000000000395e-03
1.713500000000000092e-02
3.006599999999999898e-02
4.252800000000000330e-02
5.343699999999999839e-02
6.268100000000000060e-02
6.980500000000000593e-02
7.445999999999999841e-02
7.642100000000000282e-02
7.559799999999999853e-02
7.203400000000000081e-02
6.591099999999999737e-02
5.716600000000000154e-02
4.663699999999999790e-02
3.488299999999999734e-02
2.252399999999999888e-02
1.021000000000000033e-02
-1.413500000000000043e-03
-1.174000000000000044e-02
-2.023000000000000145e-02
-2.599399999999999974e-02
-2.921599999999999892e-02
-2.976000000000000173e-02
-2.762500000000000025e-02
-2.294099999999999959e-02
-1.596399999999999902e-02
-7.064499999999999599e-03
3.295600000000000092e-03
1.473400000000000057e-02
2.649999999999999925e-02
3.797299999999999981e-02
4.854599999999999888e-02
5.765300000000000286e-02
6.480299999999999949e-02
6.960199999999999720e-02
7.177200000000000246e-02
7.074500000000000233e-02
6.700699999999999712e-02
6.075400000000000245e-02
5.231100000000000333e-02
4.211700000000000166e-02
3.070099999999999912e-02
1.865599999999999897e-02
6.614000000000000087e-03
-5.070700000000000034e-03
-1.547499999999999917e-02
-2.400800000000000156e-02
-3.016900000000000137e-02
-3.357399999999999968e-02
-3.398199999999999832e-02
-3.130700000000000149e-02
-2.563000000000000000e-02
-1.598199999999999968e-02
-4.145099999999999653e-03
9.184799999999999909e-03
2.322499999999999912e-02
3.715199999999999753e-02
5.014600000000000307e-02
6.144000000000000156e-02
7.036499999999999699e-02
7.509699999999999709e-02
7.673000000000000653e-02
7.523900000000000032e-02
7.076399999999999357e-02
6.359900000000000275e-02
5.417799999999999699e-02
4.304000000000000187e-02
3.080600000000000005e-02
1.855599999999999958e-02
6.490199999999999789e-03
-4.787500000000000089e-03
-1.471800000000000018e-02
-2.281499999999999848e-02
-2.868499999999999869e-02
-3.204699999999999910e-02
-3.274699999999999833e-02
-3.050599999999999840e-02
-2.572299999999999934e-02
-1.866900000000000157e-02
-9.723199999999999552e-03
6.403599999999999744e-04
1.188200000000000020e-02
2.342100000000000085e-02
3.466199999999999837e-02
4.501900000000000346e-02
5.397400000000000114e-02
6.106400000000000022e-02
6.591800000000000437e-02
6.827400000000000135e-02
6.799700000000000188e-02
6.508300000000000196e-02
5.966500000000000276e-02
5.139400000000000218e-02
4.134100000000000275e-02
3.006999999999999951e-02
1.820499999999999896e-02
6.408200000000000181e-03
-4.662399999999999704e-03
-1.438500000000000022e-02
-2.220799999999999857e-02
-2.717200000000000171e-02
-2.952799999999999869e-02
-2.914800000000000030e-02
-2.604499999999999871e-02
-2.037399999999999975e-02
-1.241500000000000069e-02
-2.571299999999999888e-03
8.660899999999999155e-03
2.105800000000000033e-02
3.361399999999999805e-02
4.564900000000000208e-02
5.650700000000000167e-02
6.558899999999999453e-02
7.238600000000000589e-02
7.650700000000000556e-02
7.769900000000000417e-02
7.492999999999999661e-02
6.933499999999999386e-02
6.125799999999999995e-02
5.117900000000000227e-02
3.967699999999999699e-02
2.740099999999999827e-02
1.503700000000000002e-02
3.268599999999999978e-03
-6.789500000000000396e-03
-1.510500000000000037e-02
-2.126400000000000165e-02
-2.496599999999999861e-02
-2.603799999999999865e-02
-2.444400000000000045e-02
-2.028399999999999995e-02
-1.379000000000000017e-02
-4.833399999999999849e-03
5.588100000000000359e-03
1.687599999999999864e-02
2.838900000000000104e-02
3.947599999999999720e-02
4.951200000000000045e-02
5.793100000000000332e-02
6.425999999999999768e-02
6.727700000000000347e-02
6.774399999999999866e-02
6.569300000000000139e-02
6.129099999999999826e-02
5.482000000000000067e-02
4.666900000000000215e-02
3.730200000000000182e-02
2.723899999999999932e-02
1.746500000000000136e-02
8.018000000000000821e-03
-6.398999999999999957e-04
-8.091700000000000281e-03
-1.398199999999999964e-02
-1.803099999999999842e-02
-2.004900000000000085e-02
-1.994100000000000039e-02
-1.776499999999999954e-02
-1.356699999999999920e-02
-7.539900000000000421e-03
3.680899999999999943e-05
8.807699999999999904e-03
1.835799999999999932e-02
2.823300000000000115e-02
3.795300000000000062e-02
4.728999999999999870e-02
5.550999999999999684e-02
6.216599999999999904e-02
6.688099999999999601e-02
6.936299999999999411e-02
6.942500000000000060e-02
6.699499999999999900e-02
6.212299999999999767e-02
5.443499999999999728e-02
4.484400000000000192e-02
3.381599999999999884e-02
2.189500000000000127e-02
9.676399999999999932e-03
-2.226099999999999954e-03
-1.320699999999999999e-02
-2.270300000000000096e-02
-3.014999999999999972e-02
-3.523099999999999843e-02
-3.766900000000000109e-02
-3.731600000000000195e-02
-3.416299999999999892e-02
-2.834100000000000161e-02
-2.012299999999999853e-02
-9.908099999999999546e-03
2.795199999999999855e-03
1.625499999999999862e-02
2.968300000000000105e-02
4.228900000000000020e-02
5.331899999999999834e-02
6.210600000000000148e-02
6.810299999999999687e-02
7.092299999999999993e-02
6.877400000000000180e-02
6.345199999999999452e-02
5.534900000000000236e-02
4.501200000000000340e-02
3.311200000000000254e-02
2.039699999999999847e-02
7.657200000000000291e-03
-4.328700000000000429e-03
-1.381800000000000042e-02
-2.133799999999999933e-02
-2.650599999999999831e-02
-2.906999999999999862e-02
-2.891900000000000026e-02
-2.608100000000000002e-02
-2.072399999999999937e-02
-1.314300000000000017e-02
-3.788999999999999833e-03
6.897900000000000212e-03
1.836000000000000132e-02
3.000099999999999989e-02
4.121400000000000063e-02
5.140999999999999737e-02
6.005100000000000021e-02
6.667199999999999516e-02
7.071299999999999808e-02
7.214900000000000480e-02
7.088700000000000556e-02
6.696199999999999375e-02
6.054199999999999859e-02
5.191699999999999787e-02
4.148999999999999910e-02
2.975500000000000020e-02
1.685400000000000093e-02
3.875400000000000199e-03
-8.498999999999999611e-03
-1.960900000000000143e-02
-2.884899999999999964e-02
-3.570500000000000063e-02
-3.977800000000000086e-02
-4.080899999999999805e-02
-3.786199999999999982e-02
-3.194099999999999717e-02
-2.336999999999999841e-02
-1.260799999999999942e-02
-2.242900000000000091e-04
1.313399999999999984e-02
2.677300000000000166e-02
3.998899999999999677e-02
5.179099999999999676e-02
6.192500000000000088e-02
6.990200000000000580e-02
7.534200000000000619e-02
7.799200000000000577e-02
7.773599999999999954e-02
7.460500000000000465e-02
6.877300000000000080e-02
5.995899999999999841e-02
4.925899999999999723e-02
3.727899999999999964e-02
2.468899999999999914e-02
1.218100000000000085e-02
4.410799999999999985e-04
-9.895299999999999235e-03
-1.827200000000000005e-02
-2.346099999999999922e-02
-2.604300000000000018e-02
-2.595499999999999891e-02
-2.327299999999999855e-02
-1.820400000000000143e-02
-1.107299999999999951e-02
-2.307200000000000136e-03
7.593299999999999876e-03
1.789100000000000065e-02
2.823099999999999915e-02
3.806999999999999967e-02
4.689600000000000019e-02
5.424899999999999861e-02
5.974899999999999656e-02
6.310899999999999843e-02
6.415400000000000269e-02
6.252199999999999425e-02
5.861700000000000244e-02
5.265899999999999748e-02
4.496700000000000003e-02
3.595000000000000279e-02
2.608200000000000102e-02
1.587799999999999975e-02
5.871000000000000350e-03
-3.446100000000000118e-03
-1.155699999999999956e-02
-1.802799999999999889e-02
-2.250600000000000170e-02
-2.473799999999999957e-02
-2.458199999999999968e-02
-2.202099999999999891e-02
-1.715900000000000064e-02
-9.590400000000000660e-03
-3.726499999999999778e-04
9.977200000000000304e-03
2.087999999999999926e-02
3.172300000000000120e-02
4.189899999999999874e-02
5.083300000000000318e-02
5.801400000000000307e-02
6.242099999999999732e-02
6.444600000000000328e-02
6.399599999999999733e-02
6.110600000000000059e-02
5.593499999999999861e-02
4.875800000000000273e-02
3.994999999999999940e-02
2.996899999999999911e-02
1.922499999999999903e-02
8.387300000000000311e-03
-1.970500000000000029e-03
-1.129600000000000048e-02
-1.908800000000000080e-02
-2.491900000000000018e-02
-2.846299999999999872e-02
-2.950699999999999851e-02
-2.745500000000000024e-02
-2.294300000000000159e-02
-1.621799999999999978e-02
-7.641600000000000129e-03
2.328499999999999841e-03
1.316499999999999962e-02
2.429500000000000062e-02
3.513199999999999656e-02
4.504999999999999977e-02
5.358399999999999969e-02
6.027699999999999725e-02
6.476300000000000112e-02
6.678699999999999914e-02
6.621900000000000008e-02
6.306100000000000594e-02
5.744699999999999807e-02
4.892799999999999927e-02
3.870300000000000129e-02
2.734999999999999931e-02
1.551199999999999975e-02
3.859599999999999923e-03
-6.946299999999999870e-03
-1.628800000000000039e-02
-2.362600000000000117e-02
-2.773199999999999971e-02
-2.921299999999999938e-02
-2.801299999999999971e-02
-2.421699999999999894e-02
-1.803599999999999995e-02
-9.803600000000000855e-03
4.949000000000000220e-05
1.101399999999999949e-02
2.232299999999999909e-02
3.363300000000000317e-02
4.438999999999999890e-02
5.406799999999999801e-02
6.218900000000000122e-02
6.835299999999999709e-02
7.224899999999999378e-02
7.367500000000000437e-02
7.245600000000000651e-02
6.873200000000000143e-02
6.267100000000000448e-02
5.455700000000000133e-02
4.476900000000000324e-02
3.377600000000000047e-02
2.210499999999999965e-02
1.032300000000000058e-02
-1.518100000000000092e-03
-1.225799999999999980e-02
-2.130599999999999855e-02
-2.814799999999999941e-02
-3.238100000000000006e-02
-3.373299999999999910e-02
-3.208400000000000141e-02
-2.747700000000000142e-02
-1.877500000000000002e-02
-7.870000000000000259e-03
4.559599999999999591e-03
1.774699999999999889e-02
3.088000000000000120e-02
4.315100000000000185e-02
5.380299999999999666e-02
6.217099999999999710e-02
6.643799999999999706e-02
6.770500000000000129e-02
6.594999999999999474e-02
6.131799999999999751e-02
5.411099999999999938e-02
4.476200000000000317e-02
3.381699999999999984e-02
2.190100000000000033e-02
9.953200000000000588e-03
-1.660500000000000084e-03
-1.231600000000000056e-02
-2.144300000000000025e-02
-2.854800000000000046e-02
-3.324499999999999678e-02
-3.527299999999999880e-02
-3.450700000000000295e-02
-3.038799999999999835e-02
-2.373899999999999968e-02
-1.494000000000000015e-02
-4.476400000000000171e-03
7.081200000000000168e-03
1.910999999999999852e-02
3.096700000000000147e-02
4.202299999999999786e-02
5.121799999999999964e-02
5.859199999999999825e-02
6.379799999999999360e-02
6.659800000000000442e-02
6.687300000000000189e-02
6.462900000000000589e-02
5.999299999999999772e-02
5.320799999999999835e-02
4.449899999999999689e-02
3.443500000000000033e-02
2.353200000000000083e-02
1.234799999999999960e-02
1.452500000000000015e-03
-8.596700000000000522e-03
-1.728499999999999828e-02
-2.416199999999999945e-02
-2.873900000000000066e-02
-3.091299999999999951e-02
-3.056700000000000042e-02
-2.770699999999999899e-02
-2.246199999999999933e-02
-1.508299999999999919e-02
-5.929700000000000422e-03
4.546500000000000194e-03
1.638900000000000079e-02
2.838200000000000098e-02
3.985699999999999660e-02
5.016500000000000126e-02
5.870999999999999830e-02
6.498500000000000110e-02
6.859999999999999432e-02
6.930400000000000449e-02
6.593000000000000249e-02
5.976800000000000168e-02
5.118500000000000133e-02
4.068000000000000088e-02
2.884600000000000011e-02
1.634899999999999895e-02
3.878799999999999956e-03
-7.878599999999999492e-03
-1.759499999999999953e-02
-2.549699999999999883e-02
-3.121499999999999969e-02
-3.449100000000000082e-02
-3.519400000000000306e-02
-3.332000000000000239e-02
-2.898999999999999841e-02
-2.244600000000000067e-02
-1.403700000000000087e-02
-4.196100000000000350e-03
6.568499999999999686e-03
1.770499999999999852e-02
2.864299999999999832e-02
3.882000000000000034e-02
4.770900000000000141e-02
5.484499999999999792e-02
5.985800000000000148e-02
6.245799999999999963e-02
6.248299999999999688e-02
5.989200000000000079e-02
5.477699999999999930e-02
4.735700000000000326e-02
3.797099999999999781e-02
2.706400000000000125e-02
1.437100000000000009e-02
1.390500000000000026e-03
-1.114300000000000013e-02
-2.250900000000000123e-02
-3.203700000000000297e-02
-3.914900000000000324e-02
-4.339099999999999902e-02
-4.446100000000000052e-02
-4.095000000000000029e-02
-3.436800000000000271e-02
-2.511199999999999891e-02
-1.372400000000000009e-02
-8.570500000000000427e-04
1.275800000000000024e-02
2.635799999999999949e-02
3.918599999999999861e-02
4.978500000000000286e-02
5.839099999999999846e-02
6.459499999999999964e-02
6.811300000000000687e-02
6.879899999999999904e-02
6.665200000000000291e-02
6.181299999999999989e-02
5.455700000000000133e-02
4.505100000000000077e-02
3.404599999999999987e-02
2.214100000000000096e-02
9.983000000000000554e-03
-1.773999999999999969e-03
-1.249699999999999943e-02
-2.161000000000000074e-02
-2.861999999999999961e-02
-3.269099999999999784e-02
-3.409100000000000324e-02
-3.276699999999999752e-02
-2.880500000000000074e-02
-2.242299999999999849e-02
-1.396000000000000019e-02
-3.860199999999999829e-03
7.352000000000000028e-03
1.932000000000000037e-02
3.118699999999999944e-02
4.231599999999999945e-02
5.210700000000000054e-02
6.002899999999999903e-02
6.564399999999999402e-02
6.863700000000000356e-02
6.882900000000000129e-02
6.533799999999999331e-02
5.925699999999999718e-02
5.096400000000000236e-02
4.095399999999999735e-02
2.981100000000000069e-02
1.817200000000000065e-02
6.698599999999999867e-03
-3.965699999999999954e-03
-1.259799999999999982e-02
-1.939899999999999958e-02
-2.403599999999999834e-02
-2.628600000000000034e-02
-2.605000000000000024e-02
-2.334999999999999923e-02
-1.833200000000000107e-02
-1.125199999999999985e-02
-2.494099999999999963e-03
7.537399999999999656e-03
1.834500000000000020e-02
2.939100000000000046e-02
4.012500000000000094e-02
5.000600000000000184e-02
5.853200000000000069e-02
6.526300000000000157e-02
6.986199999999999355e-02
7.204599999999999893e-02
7.166400000000000547e-02
6.868900000000000006e-02
6.321599999999999442e-02
5.546399999999999941e-02
4.576800000000000312e-02
3.456499999999999850e-02
2.167699999999999835e-02
8.473899999999999488e-03
-4.340799999999999693e-03
-1.607199999999999948e-02
-2.607399999999999995e-02
-3.377999999999999753e-02
-3.874400000000000066e-02
-4.065799999999999970e-02
-3.832800000000000096e-02
-3.297200000000000131e-02
-2.492199999999999971e-02
-1.464900000000000056e-02
-2.741299999999999900e-03
1.013099999999999938e-02
2.324999999999999983e-02
3.588999999999999829e-02
4.688099999999999906e-02
5.613599999999999840e-02
6.318000000000000005e-02
6.764699999999999880e-02
6.930400000000000449e-02
6.805700000000000638e-02
6.395699999999999996e-02
5.719699999999999784e-02
4.767799999999999816e-02
3.632599999999999718e-02
2.373700000000000115e-02
1.056900000000000027e-02
-2.489599999999999799e-03
-1.475899999999999955e-02
-2.560300000000000076e-02
-3.445700000000000152e-02
-4.028999999999999942e-02
-4.342499999999999832e-02
-4.374600000000000016e-02
-4.127600000000000019e-02
-3.617599999999999982e-02
-2.873399999999999913e-02
-1.934999999999999915e-02
-8.514499999999999499e-03
3.221900000000000198e-03
1.525699999999999973e-02
2.697899999999999951e-02
3.779300000000000020e-02
4.714999999999999747e-02
5.457399999999999751e-02
5.968600000000000294e-02
6.222199999999999953e-02
6.171700000000000103e-02
5.854800000000000282e-02
5.289499999999999758e-02
4.506399999999999989e-02
3.546699999999999853e-02
2.460800000000000140e-02
1.305399999999999963e-02
1.412999999999999977e-03
-9.962199999999999181e-03
-2.018899999999999861e-02
-2.869100000000000122e-02
-3.497299999999999714e-02
-3.864900000000000280e-02
-3.946700000000000208e-02
-3.731999999999999901e-02
-3.225999999999999701e-02
-2.346399999999999875e-02
-1.245800000000000032e-02
1.323600000000000134e-04
1.359600000000000045e-02
2.717200000000000171e-02
4.009200000000000264e-02
5.162400000000000322e-02
6.111500000000000266e-02
6.708699999999999386e-02
7.020999999999999464e-02
7.036799999999999999e-02
6.760099999999999443e-02
6.209800000000000042e-02
5.419100000000000306e-02
4.433100000000000235e-02
3.306499999999999717e-02
2.101799999999999849e-02
8.825299999999999465e-03
-2.855599999999999805e-03
-1.339500000000000066e-02
-2.222199999999999870e-02
-2.885599999999999971e-02
-3.292799999999999894e-02
-3.420600000000000029e-02
-3.200599999999999973e-02
-2.707000000000000031e-02
-1.968800000000000064e-02
-1.027699999999999968e-02
6.392099999999999735e-04
1.246099999999999985e-02
2.453999999999999931e-02
3.621699999999999919e-02
4.666000000000000009e-02
5.550399999999999778e-02
6.226399999999999990e-02
6.655800000000000605e-02
6.812500000000000500e-02
6.683699999999999364e-02
6.271100000000000285e-02
5.590500000000000330e-02
4.616100000000000064e-02
3.452600000000000113e-02
2.159499999999999961e-02
8.032499999999999710e-03
-5.461200000000000256e-03
-1.818900000000000031e-02
-2.949099999999999985e-02
-3.878100000000000297e-02
-4.509300000000000114e-02
-4.862299999999999955e-02
-4.922100000000000086e-02
-4.688599999999999712e-02
-4.176200000000000051e-02
-3.413000000000000062e-02
-2.439900000000000055e-02
-1.308199999999999988e-02
-3.370599999999999746e-04
1.270199999999999975e-02
2.531299999999999870e-02
3.679500000000000132e-02
4.650699999999999973e-02
5.390099999999999753e-02
5.855400000000000188e-02
6.019300000000000345e-02
5.759700000000000236e-02
5.209600000000000342e-02
4.406800000000000300e-02
3.402800000000000269e-02
2.259200000000000097e-02
1.044999999999999922e-02
-1.681999999999999901e-03
-1.309399999999999974e-02
-2.238199999999999912e-02
-2.981999999999999929e-02
-3.503699999999999870e-02
-3.778100000000000208e-02
-3.792999999999999844e-02
-3.549499999999999877e-02
-3.061699999999999838e-02
-2.356099999999999861e-02
-1.462600000000000011e-02
-4.353199999999999778e-03
6.717899999999999740e-03
1.800799999999999970e-02
2.892899999999999985e-02
3.890799999999999814e-02
4.742099999999999788e-02
5.401899999999999757e-02
5.804399999999999837e-02
5.960200000000000220e-02
5.861700000000000244e-02
5.513799999999999951e-02
4.933900000000000091e-02
4.150600000000000123e-02
3.203000000000000291e-02
2.138299999999999923e-02
9.921599999999999170e-03
-1.583999999999999905e-03
-1.252900000000000021e-02
-2.232699999999999962e-02
-3.044300000000000131e-02
-3.641899999999999998e-02
-3.989499999999999991e-02
-4.063300000000000245e-02
-3.817000000000000254e-02
-3.295100000000000112e-02
-2.519700000000000065e-02
-1.525600000000000046e-02
-3.589900000000000035e-03
9.252800000000000261e-03
2.265800000000000106e-02
3.597600000000000103e-02
4.894400000000000139e-02
6.049600000000000116e-02
7.001300000000000578e-02
7.696600000000000663e-02
8.094999999999999418e-02
8.170900000000000385e-02
7.914899999999999713e-02
7.335300000000000153e-02
6.315600000000000380e-02
5.059199999999999808e-02
3.640700000000000186e-02
2.143899999999999972e-02
6.563799999999999843e-03
-7.353900000000000020e-03
-1.950999999999999956e-02
-2.920899999999999885e-02
-3.431000000000000022e-02
-3.625599999999999656e-02
-3.507300000000000001e-02
-3.096199999999999994e-02
-2.427500000000000144e-02
-1.549700000000000036e-02
-5.208100000000000229e-03
5.945500000000000264e-03
1.651800000000000143e-02
2.673599999999999935e-02
3.607899999999999996e-02
4.408600000000000019e-02
5.037099999999999911e-02
5.464499999999999913e-02
5.671999999999999958e-02
5.652399999999999786e-02
5.400300000000000239e-02
4.940499999999999753e-02
4.298600000000000337e-02
3.509199999999999819e-02
2.613299999999999998e-02
1.656699999999999839e-02
6.876400000000000394e-03
-2.457899999999999842e-03
-1.070399999999999997e-02
-1.775900000000000048e-02
-2.330499999999999933e-02
-2.709900000000000156e-02
-2.897900000000000129e-02
-2.886899999999999883e-02
-2.678900000000000031e-02
-2.284299999999999872e-02
-1.742799999999999905e-02
-1.057400000000000007e-02
-2.583999999999999925e-03
6.184000000000000261e-03
1.533200000000000014e-02
2.443899999999999892e-02
3.307399999999999923e-02
4.081800000000000012e-02
4.793300000000000338e-02
5.333999999999999853e-02
5.667799999999999921e-02
5.767800000000000010e-02
5.618100000000000177e-02
5.215499999999999997e-02
4.570300000000000057e-02
3.706399999999999972e-02
2.512899999999999856e-02
1.205799999999999927e-02
-1.382999999999999898e-03
-1.439000000000000001e-02
-2.617399999999999935e-02
